-2.534781406771472168e-14 3.654569705000022317e+00
-2.544522654087337799e+00 3.847693611453356421e+00
-4.632033611521813476e+00 4.031709758663212462e+00
-6.254728275382091418e+00 4.202297481814725622e+00
-7.416505763412532204e+00 4.355767847997204179e+00
-8.132556474397883761e+00 4.489208863304843256e+00
-8.428611439911227521e+00 4.600595283584639539e+00
-8.339882872208288944e+00 4.688858505258152398e+00
-7.909735369621876622e+00 4.753913831682384128e+00
-7.188135816848979509e+00 4.796644338870494906e+00
-6.229936826827350060e+00 4.818842514610154559e+00
-5.093053387595070092e+00 4.823112729077685401e+00
-3.836595049937453705e+00 4.812739328352961365e+00
-2.519016447329179176e+00 4.791526647404420025e+00
-1.196347187564454684e+00 4.763618449444017244e+00
7.944171524654991545e-02 4.733305161008265038e+00
1.261883523401575724e+00 4.704827749676559812e+00
2.311229769883670571e+00 4.682187164587292116e+00
3.195397725534937727e+00 4.668967927884574820e+00
3.890626543922152347e+00 4.668183745379105076e+00
4.381828031926998435e+00 4.682151932035066189e+00
4.662629037098849238e+00 4.712402073320239637e+00
4.735113379825186541e+00 4.759622731429248965e+00
4.609281693101776156e+00 4.823648230922771063e+00
4.302257092946695671e+00 4.903485703542558305e+00
3.837272953871330827e+00 4.997380722326540514e+00
3.242485921651403036e+00 5.102918095556907119e+00
2.549662435092891144e+00 5.217152801967674058e+00
1.792790292169167188e+00 5.336764702346673772e+00
1.006668098871049688e+00 5.458229620095847778e+00
2.255247710374548853e-01 5.577998691191966785e+00
-5.182813160510678641e-01 5.692677572738118918e+00
-1.195438284344994440e+00 5.799197181664344392e+00
-1.780692493711953928e+00 5.894968105635672195e+00
-2.253663988759191827e+00 5.978011663405404796e+00
-2.599441839391646081e+00 6.047061751397787788e+00
-2.808944516529982227e+00 6.101633041901077803e+00
-2.879039733858016703e+00 6.142052728153411856e+00
-2.812427452622751289e+00 6.169454765754868397e+00
-2.617298638118609411e+00 6.185737355442224583e+00
-2.306790543287337236e+00 6.193486164609681488e+00
-1.898266479925721173e+00 6.195867411351012599e+00
-1.412453968561989015e+00 6.196496358388161596e+00
-8.724796345667658048e-01 6.199287917614721088e+00
-3.028421008832428152e-01 6.208296894280940670e+00
2.716346584101326234e-01 6.227555863387848056e+00
8.268255038644808375e-01 6.260918747009627694e+00
1.340265942417010248e+00 6.311917845539994687e+00
1.792015242439439104e+00 6.383641382212530857e+00
2.165389449934181698e+00 6.478637580490402392e+00
2.447538931605886869e+00 6.598849956324507104e+00
2.629851944322973978e+00 6.745586934414657954e+00
2.708173160945428037e+00 6.919527163494957556e+00
2.682833764422495548e+00 7.120760092410148623e+00
2.558497346582123022e+00 7.348859562764257447e+00
2.343833114852378774e+00 7.602986461925716810e+00
2.051034539256375133e+00 7.882014945167155950e+00
1.695207314376285801e+00 8.184675453086573071e+00
1.293655157830091662e+00 8.509706784404345470e+00
8.650953572025408267e-01 8.856008884703488349e+00
4.288380037040427362e-01 9.222787811911478784e+00
3.963462095992185616e-03 9.609684554139137802e+00
-3.914681707724283477e-01 1.001688000045017901e+01
-7.411440092487550091e-01 1.044516937651729194e+01
-1.031133487192060771e+00 1.089600081284974564e+01
-1.250407834614571723e+00 1.137147435464153133e+01
-1.391225430959533993e+00 1.187429957648341450e+01
-1.449370480046308529e+00 1.240771194849062731e+01
-1.424238766055712535e+00 1.297535012192709125e+01
-1.318770677555162862e+00 1.358109826817950783e+01
-1.139237963757962380e+00 1.422889942215668135e+01
-8.948965615193892331e-01 1.492254736254232661e+01
-5.975230718246954398e-01 1.566546582901614215e+01
-2.608568698168375333e-01 1.646048476600156363e+01
1.000267602866374977e-01 1.730962374546761495e+01
4.693847839400621114e-01 1.821389272832388784e+01
8.314870856709477565e-01 1.917311986590046047e+01
1.171280974504643080e+00 2.018581513183264420e+01
1.475012140583297882e+00 2.124907724314240909e+01
1.730777073002068622e+00 2.235854962980100069e+01
1.928985328510775421e+00 2.350842921449469358e+01
2.062714246653682526e+00 2.469152955324646470e+01
2.127943549622577812e+00 2.589939755855420245e+01
2.123662532337919462e+00 2.712248068226524111e+01
2.051848014179597168e+00 2.835033918037302314e+01
1.917316658403517504e+00 2.957189601886868502e+01
1.727460444059317535e+00 3.077571520435990138e+01
1.491878788222322116e+00 3.195029791973913902e+01
1.221924876600601451e+00 3.308438488285698043e+01
9.301870114309923609e-01 3.416725287550286794e+01
6.299281066611965851e-01 3.518899344050225864e+01
3.345077719969997698e-01 3.614076232318426918e+01
5.681169301166699714e-02 3.701498932329040059e+01
-1.912877582374781504e-01 3.780553978504445922e+01
-3.994175081422993712e-01 3.850782092549949454e+01
-5.591168454983704850e-01 3.911882850414548329e+01
-6.641614756437488332e-01 3.963713187391993387e+01
-7.107865173183628427e-01 4.006279811711466721e+01
-6.978008702708310418e-01 4.039725864380006470e+01
-6.265900965484084706e-01 4.064312419752865679e+01
-5.010097112427182031e-01 4.080395655826745127e+01
-3.271753694490286413e-01 4.088400724867134528e+01
-1.131606755563420996e-01 4.088793514258811257e+01
1.313829432820946275e-01 4.082051596676584637e+01
3.956668128810806873e-01 4.068635722148871281e+01
6.682462934289116196e-01 4.048963199014971082e+01
9.375216360113456382e-01 4.023384445372487761e+01
1.192236810835234806e+00 3.992163869189658243e+01
1.421955150264256229e+00 3.955466058197195167e+01
1.617491982272345918e+00 3.913348036765282245e+01
1.771286578250872878e+00 3.865758085156668500e+01
1.877698599945679447e+00 3.812541327568568761e+01
1.933217671941588778e+00 3.753451991336565641e+01
1.936578574411969900e+00 3.688171933534501079e+01
1.888778676026513503e+00 3.616334736237916303e+01
1.792998430903354423e+00 3.537554400942354960e+01
1.654429867562811296e+00 3.451457438238361419e+01
1.480021830100194391e+00 3.357716961682629631e+01
1.278154134331656921e+00 3.256087263866224646e+01
1.058255636995064419e+00 3.146437284707177184e+01
8.303833726448330843e-01 3.028781381148032992e+01
6.047813093662840478e-01 2.903305875086024201e+01
3.914378628122323067e-01 2.770389990976152106e+01
1.996610751217510471e-01 2.630619991724056916e+01
3.768933271008736985e-02 2.484795574096503401e+01
-8.764628008079300425e-02 2.333927883326510511e+01
-1.711943299868057544e-01 2.179228839187213396e+01
-2.096794064122530221e-01 2.022091819231193810e+01
-2.018152287033617154e-01 1.864064104726950433e+01
-1.483308573621318349e-01 1.706811846157447121e+01
-5.191013579414237300e-02 1.552078633184658329e+01
8.295181034828751077e-02 1.401639044678658408e+01
2.501677029892528936e-01 1.257248795052823453e+01
4.423424307404785205e-01 1.120593272922767625e+01
6.511094783814083131e-01 9.932363785684422908e+00
8.675043420256756121e-01 8.765716021307035533e+00
1.082358431911920160e+00 7.717772422421335321e+00
1.286696313282570392e+00 6.797775453750602104e+00
1.472119224458487974e+00 6.012113532730565701e+00
1.631158626513700138e+00 5.364095861748500838e+00
1.757585036720580973e+00 4.853825727273809676e+00
1.846659505542577850e+00 4.478178755667602040e+00
1.895317716751903303e+00 4.230888685622486989e+00
1.902279704041479835e+00 4.102739131418148055e+00
1.868081451799393333e+00 4.081855732310404328e+00
1.795028039609546155e+00 4.154089175689382962e+00
1.687071353390474870e+00 4.303476004166649105e+00
1.549618577757155835e+00 4.512761016630052247e+00
1.389280570127421566e+00 4.763962579679009046e+00
1.213571677893051648e+00 5.038960384392535907e+00
1.030574495801569901e+00 5.320084191753389646e+00
8.485843952914577937e-01 5.590681954518515795e+00
6.757493411878733314e-01 5.835646396599902808e+00
5.197205225430731046e-01 6.041880651500893151e+00
3.873286710769220931e-01 6.198685853755699249e+00
2.842996584869677545e-01 6.298056554717567757e+00
2.150211151254460828e-01 6.334873381194321418e+00
1.823694829064918532e-01 6.306986333334243966e+00
1.876042100784510447e-01 6.215186369570927738e+00
2.303328347599893355e-01 6.063067282174325889e+00
3.085476175211169236e-01 5.856784152775660779e+00
4.187313043135754143e-01 5.604718720887702510e+00
5.560266614013127384e-01 5.317065636718734112e+00
7.144617478479134975e-01 5.005356655014148615e+00
8.872205901625132007e-01 4.681942233605145276e+00
1.066947092176607548e+00 4.359451630198093675e+00
1.246068724288993401e+00 4.050253376254774551e+00
1.417125839024363287e+00 3.765937914182007074e+00
1.573092377694354616e+00 3.516843215561778813e+00
1.707674262552279609e+00 3.311642391432375376e+00
1.815572880769900310e+00 3.157009732413072367e+00
1.892702706806089763e+00 3.057378379746833463e+00
1.936354202218981024e+00 3.014799058273384347e+00
1.945295582081109531e+00 3.028905150996131557e+00
1.919809735972477505e+00 3.096985030078470480e+00
1.861665420634161849e+00 3.214158157541656458e+00
1.774024678019286760e+00 3.373647209118697088e+00
1.661291154899895650e+00 3.567134529596843517e+00
1.528906492769104064e+00 3.785187757891868898e+00
1.383104114960854725e+00 4.017736606231621543e+00
1.230631472559548412e+00 4.254580656422695562e+00
1.078453051726035339e+00 4.485906733774920774e+00
9.334471443495243603e-01 4.702793989143632558e+00
8.021095169951347748e-01 4.897685279552425719e+00
6.902766800389562585e-01 5.064804769620007363e+00
6.028804840353638728e-01 5.200503825725816043e+00
5.437443011132438997e-01 5.303520155449211515e+00
5.154291536583701649e-01 5.375138639542556440e+00
5.191359164318154473e-01 5.419246270860004877e+00
5.546672410926835051e-01 5.442277893443279169e+00
6.204502426949805027e-01 5.453053851970129706e+00
7.136183595795615453e-01 5.462515038143512136e+00
8.301482643434818787e-01 5.483364979292095320e+00
9.650453722455178962e-01 5.529632387463317755e+00
1.112569462763122186e+00 5.616170822494085613e+00
1.266490284454467430e+00 5.758114689871340452e+00
1.420361819846012619e+00 5.970312590899674809e+00
1.567803192744493535e+00 6.266759997480464861e+00
1.702774030247272252e+00 6.660053299683644568e+00
1.819832448120298984e+00 7.160886469976579960e+00
1.914364690797679680e+00 7.777609937869528700e+00
1.982776784131909054e+00 8.515868841416121882e+00
2.022640288724709023e+00 9.378334717321058278e+00
2.032786295977146551e+00 1.036454103630521573e+01
2.013344096468705935e+00 1.147082893363261391e+01
1.965723370273179560e+00 1.269040519077282525e+01
1.892541195936640497e+00 1.401351016640778191e+01
1.797497543466610948e+00 1.542768912855277463e+01
1.685205105536717651e+00 1.691815647423478453e+01
1.560981237573740410e+00 1.846823879648406930e+01
1.430611341396574865e+00 2.005987980923124425e+01
1.300094174436546623e+00 2.167418788372959781e+01
1.175380251607630377e+00 2.329200547124110798e+01
1.062114704241294394e+00 2.489447903971188225e+01
9.653956659977691590e-01 2.646360835666854427e+01
8.895584863677233889e-01 2.798275499152100210e+01
8.379948656318657596e-01 2.943709173889410025e+01
8.130144168037588548e-01 3.081397719992708062e+01
8.157542619435373954e-01 3.210324289192480762e+01
8.461401468113715074e-01 3.329738385610108509e+01
9.029003026224440287e-01 3.439164764833871146e+01
9.836309950263347757e-01 3.538402066723336503e+01
1.084910477325994771e+00 3.627511483070279041e+01
1.202456002661257850e+00 3.706796149268490836e+01
1.331316735964105824e+00 3.776772303929578811e+01
1.466093917056979778e+00 3.838133567880395702e+01
1.601178522794854731e+00 3.891709942225350005e+01
1.730996002987331917e+00 3.938423304748035036e+01
1.850247447394937295e+00 3.979241288379783725e+01
1.954136784945524896e+00 4.015131451463800971e+01
2.038574307095353699e+00 4.047017597051719662e+01
2.100347911456576622e+00 4.075739970690921865e+01
2.137254928369675788e+00 4.102020869382105417e+01
2.148189155752230572e+00 4.126436937684656669e+01
2.133179707816217796e+00 4.149399121783866207e+01
2.093380393879724632e+00 4.171140912054085703e+01
2.031010492353792163e+00 4.191715143907428143e+01
1.949249879006759389e+00 4.210999260842635294e+01
1.852093417852818558e+00 4.228708587969227040e+01
1.744171244499592044e+00 4.244416833633614772e+01
1.630542993029965082e+00 4.257582744646387596e+01
1.516475079520243074e+00 4.267581598754618710e+01
1.407210815112639457e+00 4.273740035913445467e+01
1.307743353854392332e+00 4.275372614450197517e+01
1.222601278630390143e+00 4.271818433349224620e+01
1.155656004574784568e+00 4.262476188552994927e+01
1.109959163597482590e+00 4.246836127272411687e+01
1.087616773022936911e+00 4.224507524804482728e+01
1.089705347256322732e+00 4.195240525573442625e+01
1.116233257069833451e+00 4.158941454023786832e+01
1.166148658259504645e+00 4.115680999714029298e+01
1.237393286700971373e+00 4.065695001253377683e+01
1.326999438023656497e+00 4.009377881588358861e+01
1.431225602366475558e+00 3.947269108415745364e+01
1.545724586817400770e+00 3.880033354447510163e+01
1.665736599353868863e+00 3.808435300181778871e+01
1.786298745007123046e+00 3.733310245595496468e+01
1.902461739262178542e+00 3.655531867640935673e+01
2.009504400460596418e+00 3.575978570858471528e+01
2.103136649711839112e+00 3.495499924722437157e+01
2.179682313291814832e+00 3.414884662228455170e+01
2.236233961275113646e+00 3.334831631249152650e+01
2.270773283889933492e+00 3.255924947607033459e+01
2.282252046588336469e+00 3.178614403436858638e+01
2.270630407548263729e+00 3.103201945241940152e+01
2.236871250449497861e+00 3.029834763892299065e+01
2.182891099164353310e+00 2.958505245786574989e+01
2.111470056410534202e+00 2.889057733401348216e+01
2.026124964613924551e+00 2.821201747595265630e+01
1.930951549143507862e+00 2.754531046081849865e+01
1.830442605558642022e+00 2.688547644295240246e+01
1.729290279125905050e+00 2.622689716903153112e+01
1.632181116190846826e+00 2.556362139083830343e+01
1.543592818239138298e+00 2.488968322792068122e+01
1.467601492469807090e+00 2.419941958550427330e+01
1.407707676084345216e+00 2.348777289168312521e+01
1.366688540277927189e+00 2.275056616926572062e+01
1.346482494262451590e+00 2.198473876323431853e+01
1.348110963033940068e+00 2.118853284245266622e+01
1.371640469409093566e+00 2.036162300113661416e+01
1.416186383542952010e+00 1.950518380182403178e+01
1.479957889016705330e+00 1.862189281482558911e+01
1.560341932462130821e+00 1.771586949963056412e+01
1.654022250455921883e+00 1.679255301953601176e+01
1.757128074727936085e+00 1.585852466308970676e+01
1.865405867949179619e+00 1.492128285433432566e+01
1.974406489879642512e+00 1.398898067092581421e+01
2.079679576685027342e+00 1.307013727479893994e+01
2.176966659216262201e+00 1.217333563453444256e+01
2.262384657696663748e+00 1.130691934529566467e+01
2.332591863282623912e+00 1.047870121885539696e+01
2.384929328475875909e+00 9.695695635217628450e+00
2.417531700995859456e+00 8.963885454947696729e+00
2.429402899318387377e+00 8.288032645938406162e+00
2.420453581970682055e+00 7.671539757657538594e+00
2.391499038328398719e+00 7.116367073343551120e+00
2.344217852749867603e+00 6.623007790993919564e+00
2.281073391454444543e+00 6.190521038874237547e+00
2.205201759282568563e+00 5.816620033929746469e+00
2.120271302842146710e+00 5.497810351838513299e+00
2.030319936751647347e+00 5.229571197267909533e+00
1.939577490244536406e+00 5.006570831319864467e+00
1.852280874242868025e+00 4.822906002830642080e+00
1.772490130069463099e+00 4.672354394203312111e+00
1.703913331126089226e+00 4.548628762094878653e+00
1.649747874245271140e+00 4.445621636848020586e+00
1.612544939031132385e+00 4.357630127165605494e+00
1.594102846235057935e+00 4.279551520955469535e+00
1.595393757238140031e+00 4.207041921815405594e+00
1.616526683380685725e+00 4.136632037845654253e+00
1.656748181155359045e+00 4.065796355712592458e+00
1.714480466894362509e+00 3.992974188430855609e+00
1.787395063981976895e+00 3.917543374979894910e+00
1.872518566870586154e+00 3.839749627724963865e+00
1.966365734925679565e+00 3.760596567898430109e+00
2.065093973800032234e+00 3.681703267036776417e+00
2.164672371360034209e+00 3.605137543091830210e+00
2.261057866120075310e+00 3.533234280242892655e+00
2.350370862361166324e+00 3.468408606840709396e+00
2.429062677060372710e+00 3.412973853282725845e+00
2.494067604334758048e+00 3.368973820040679801e+00
2.542933093951504908e+00 3.338038036833878230e+00
2.573922528904414975e+00 3.321267429511607361e+00
2.586086308605197726e+00 3.319156193199478633e+00
2.579298344557927614e+00 3.331553776594908367e+00
2.554256592728092468e+00 3.357668803597210427e+00
2.512447814736062046e+00 3.396114593893539979e+00
2.456078310253503538e+00 3.444993796831592903e+00
2.387973828484561079e+00 3.502017625278051050e+00
2.311453184363571278e+00 3.564653365102612437e+00
2.230181218860327164e+00 3.630292328430333448e+00
2.148007605483690963e+00 3.696429287919464457e+00
2.068798580794951381e+00 3.760843730764528825e+00
1.996268942211112396e+00 3.821773040676931910e+00
1.933821601894838871e+00 3.878067967892079526e+00
1.884401615314231782e+00 3.929321473046366808e+00
1.850370934986976579e+00 3.975963200218623594e+00
1.833409204679096183e+00 4.019313396380916004e+00
1.834444748986915785e+00 4.061591979211185865e+00
1.853618579383943699e+00 4.105880577445992330e+00
1.890282789277170972e+00 4.156037630744219058e+00
1.943033210838747360e+00 4.216568935086555392e+00
2.009774720670057579e+00 4.292458248077203997e+00
2.087816174043782613e+00 4.388964621356330476e+00
2.173990679125122227e+00 4.511394906842097541e+00
2.264795847400128626e+00 4.664861303314140173e+00
2.356547820063528142e+00 4.854034798997148847e+00
2.445542307269604976e+00 5.082905872159193095e+00
2.528215610797380108e+00 5.354563804475374056e+00
2.601298640721188438e+00 5.671005433080646085e+00
2.661957279666303133e+00 6.032983132370682178e+00
2.707913077613538277e+00 6.439900314222443356e+00
2.737539147119015137e+00 6.889760825404830591e+00
2.749927233353993472e+00 7.379176382572771864e+00
2.744923206452205999e+00 7.903433713118717563e+00
2.723129609140424012e+00 8.456620470672588041e+00
2.685875329828073088e+00 9.031806380616274055e+00
2.635153897630810871e+00 9.621273559129043917e+00
2.573533249404244216e+00 1.021678765153420265e+01
2.504041041459397210e+00 1.080989945662744489e+01
2.430030617903616630e+00 1.139226513511958316e+01
2.355033559417546218e+00 1.195597201739019333e+01
2.282605286750474693e+00 1.249385648320065911e+01
2.216170459823759042e+00 1.299980041574769807e+01
2.158874886029527040e+00 1.346899334184078612e+01
2.113450332856062985e+00 1.389814854136486133e+01
2.082098045725551572e+00 1.428566310030862674e+01
2.066395929137405663e+00 1.463171402730148074e+01
2.067233295746144783e+00 1.493828506826475255e+01
2.084775870678884591e+00 1.520912163505928483e+01
2.118462410885535885e+00 1.544961419693826343e+01
2.167032919780234934e+00 1.566661344549751256e+01
2.228587065997494676e+00 1.586818340943547767e+01
2.300670111202206325e+00 1.606330134241498087e+01
2.380382471774615816e+00 1.626151552139332068e+01
2.464508033394126052e+00 1.647257397277037327e+01
2.549655548800425997e+00 1.670603850592559780e+01
2.632406910415268975e+00 1.697089921572889892e+01
2.709465823138633489e+00 1.727520477902943696e+01
2.777800418644666536e+00 1.762572340242746805e+01
2.834773648751899966e+00 1.802764819388166373e+01
2.878255857637519011e+00 1.848435906912871118e+01
2.906714735055997423e+00 1.899725113035411184e+01
2.919278859266750015e+00 1.956563685594399260e+01
2.915772204360960185e+00 2.018672652183391492e+01
2.896718260699515657e+00 2.085568815642900020e+01
2.863313743403848921e+00 2.156578514090906040e+01
2.817373184462498958e+00 2.230858643727496116e+01
2.761246961750960516e+00 2.307424148821459298e+01
2.697716458844021670e+00 2.385180920883306399e+01
2.629871024018260339e+00 2.462962829094555772e+01
2.560972163835572690e+00 2.539571435903516772e+01
2.494310933912742723e+00 2.613816842483138103e+01
2.433064755229516596e+00 2.684558063196382349e+01
2.380159878369466409e+00 2.750741348391206387e+01
2.338145442026361209e+00 2.811434960057736276e+01
2.309084539257356461e+00 2.865859051697043114e+01
2.294466939712184406e+00 2.913409506148131101e+01
2.295147152769920318e+00 2.953674834719932463e+01
2.311310397951478635e+00 2.986445527397352961e+01
2.342467824453874137e+00 3.011715555183416271e+01
2.387481044841035072e+00 3.029676048784421383e+01
2.444614774496337350e+00 3.040701499302321764e+01
2.511615153657018595e+00 3.045329132881397527e+01
2.585810225153703179e+00 3.044232389500750813e+01
2.664228095745016844e+00 3.038189674615307112e+01
2.743727562435820833e+00 3.028049741098186232e+01
2.821135468848784189e+00 3.014695189992886881e+01
2.893384791895843744e+00 2.999005646446385498e+01
2.957647455961306626e+00 2.981822169036572490e+01
3.011456129448928820e+00 2.963914386498565179e+01
3.052809764434732287e+00 2.945951728364288869e+01
3.080258371169219522e+00 2.928479930716166990e+01
3.092963442484558012e+00 2.911903763036936255e+01
3.090731517792551841e+00 2.896476647058064557e+01
3.074019554941777255e+00 2.882297535317311699e+01
3.043912009077487379e+00 2.869315098785608242e+01
3.002070747133525064e+00 2.857338953025816508e+01
2.950660101305991656e+00 2.846057344591527993e+01
2.892250434065839038e+00 2.835060436949381213e+01
2.829704505030436579e+00 2.823868090235871620e+01
2.766051657186852086e+00 2.811960832178225544e+01
2.704355345850492753e+00 2.798812577024770931e+01
2.647579797409202573e+00 2.783923571450383960e+01
2.598461596012724861e+00 2.766852034571326513e+01
2.559391755597526519e+00 2.747243014052097365e+01
2.532313353601130856e+00 2.724853099599751260e+01
2.518639103401340673e+00 2.699569813947482544e+01
2.519192356281864775e+00 2.671424732208330610e+01
2.534173989908286906e+00 2.640599653475434394e+01
2.563156504463543151e+00 2.607425452177631087e+01
2.605105459525419054e+00 2.572373558052370512e+01
2.658427196298410955e+00 2.536040338966807894e+01
2.721040652553006645e+00 2.499124976288337763e+01
2.790470040731942269e+00 2.462401714544897047e+01
2.863954267736743553e+00 2.426687623146639083e+01
2.938568265991695405e+00 2.392807216879656451e+01
3.011350909467493508e+00 2.361555434609455872e+01
3.079433926018607437e+00 2.333660565382535879e+01
3.140166198999989167e+00 2.309748733771325035e+01
3.191228076395466129e+00 2.290311510579390131e+01
3.230730763747589496e+00 2.275678102506499201e+01
3.257296547104603590e+00 2.265993399487329896e+01
3.270116443961696984e+00 2.261202928229645792e+01
3.268982875977349600e+00 2.261045484403745576e+01
3.254296053206359840e+00 2.265053905350995578e+01
3.227043907669187917e+00 2.272564112944181147e+01
3.188756564178035990e+00 2.282732216149421944e+01
3.141437438499808721e+00 2.294559129077492088e+01
3.087474059491337464e+00 2.306921846811253118e+01
3.029532579486970079e+00 2.318610241179868581e+01
2.970440628867102362e+00 2.328368003678042442e+01
2.913063657107202165e+00 2.334936182796226944e+01
2.860180163458295954e+00 2.337097645755605768e+01
2.814361245383067978e+00 2.333720745051022760e+01
2.777859681894172095e+00 2.323800490507884575e+01
2.752513332189974626e+00 2.306495617063794867e+01
2.739666987396610853e+00 2.281160093626251850e+01
2.740115993594806287e+00 2.247367832841508672e+01
2.754074003997812881e+00 2.204929626681862942e+01
2.781166159464960153e+00 2.153901637567744842e+01
2.820447885895462914e+00 2.094585106793487128e+01
2.870448382915204100e+00 2.027517287707648919e+01
2.929236809063308300e+00 1.953453956245999379e+01
2.994508190664164182e+00 1.873344181902306360e+01
3.063685236842599746e+00 1.788298344552825370e+01
3.134031567841227162e+00 1.699550644418212997e+01
3.202771386561892086e+00 1.608417563244597659e+01
3.267210363982144816e+00 1.516253886045766386e+01
3.324852478148470514e+00 1.424407978488202176e+01
3.373507744216447612e+00 1.334178031966181521e+01
3.411386189951477910e+00 1.246770936207791181e+01
3.437174048199099552e+00 1.163265320340761200e+01
3.450088927443473619e+00 1.084580122947623160e+01
3.449911648675414888e+00 1.011449817494972514e+01
3.436993460542945744e+00 9.444071415657408153e+00
3.412238420275938822e+00 8.837738682590192241e+00
3.377061808221700101e+00 8.296598289240739277e+00
3.333326482037064942e+00 7.819700617640696017e+00
3.283260027718166718e+00 7.404196346295042197e+00
3.229356387734277689e+00 7.045553859400405017e+00
3.174266306328294540e+00 6.737835575536789356e+00
3.120681400541529094e+00 6.474020684664369973e+00
3.071216923134081789e+00 6.246360074403367157e+00
3.028298319961894691e+00 6.046748126671777968e+00
2.994056498846823455e+00 5.867095614390036573e+00
2.970236328492821709e+00 5.699688138265960546e+00
2.958122292729171487e+00 5.537515400975145496e+00
2.958484463862173452e+00 5.374558078606990641e+00
2.971547062953993290e+00 5.206021050201592892e+00
2.996980883891179115e+00 5.028504196517866731e+00
3.033919815599447567e+00 4.840104771563168207e+00
3.081000648212159021e+00 4.640448363936870990e+00
3.136424339999162036e+00 4.430648570334103198e+00
3.198035996103293144e+00 4.213198568339045380e+00
3.263420007514685306e+00 3.991800670329443079e+00
3.330006153635371113e+00 3.771142543512634671e+00
3.395182011660685895e+00 3.556630984679045149e+00
3.456406760102977760e+00 3.354095851829883568e+00
3.511321422425619954e+00 3.169477909535233451e+00
3.557850770901964665e+00 3.008514896122381543e+00
3.594292492053556831e+00 2.876440050013981953e+00
3.619389785981289798e+00 2.777706647816378105e+00
3.632384307026863546e+00 2.715750842312582236e+00
3.633047219907633796e+00 2.692803303071162446e+00
3.621687105573684562e+00 2.709757936509397780e+00
3.599134462454243177e+00 2.766103394799540816e+00
3.566703567334796876e+00 2.859920286760999630e+00
3.526133441536147384e+00 2.987944100656910962e+00
3.479510569840880585e+00 3.145690964195614114e+00
3.429176802839677407e+00 3.327640624984408380e+00
3.377626504461807677e+00 3.527468552230307974e+00
3.327397458561253352e+00 3.738316942780263386e+00
3.280960302582723198e+00 3.953092750465915461e+00
3.240611302237075275e+00 4.164779715964068707e+00
3.208373117568379840e+00 4.366750800941833432e+00
3.185907845695989948e+00 4.553067446374916116e+00
3.174446075499337105e+00 4.718752676398593415e+00
3.174734979181704109e+00 4.860026226542724537e+00
3.187007626487641687e+00 4.974491535667424635e+00
3.210974776311961598e+00 5.061266530004705722e+00
3.245839418347394645e+00 5.121052553103820237e+00
3.290333347150016241e+00 5.156138450939871554e+00
3.342774095635586917e+00 5.170339591496845522e+00
3.401139675953967156e+00 5.168874363054124288e+00
3.463157810852493412e+00 5.158183336418358245e+00
3.526405720854343784e+00 5.145698680721812579e+00
3.588416088155776063e+00 5.139573488298422532e+00
3.646784565764552344e+00 5.148382304888046157e+00
3.699274150320863264e+00 5.180805309189107533e+00
3.743911890695377220e+00 5.245309194415058940e+00
3.779073754414539632e+00 5.349837851375371045e+00
3.803554004288817403e+00 5.501525439419865826e+00
3.816616124596813098e+00 5.706443384237145366e+00
3.818023149370411762e+00 5.969391308753074554e+00
3.808046148919630891e+00 6.293739954664324898e+00
3.787450585117419166e+00 6.681331874428684259e+00
3.757461209460375873e+00 7.132443167462071187e+00
3.719707108608166557e+00 7.645806909740721302e+00
3.676149359642963965e+00 8.218696297297650943e+00
3.628994504659897036e+00 8.847063004995924018e+00
3.580597659409319622e+00 9.525723960761304454e+00
3.533359507764849639e+00 1.024858775030457636e+01
3.489621684391171819e+00 1.100891028207044897e+01
3.451565101908687261e+00 1.179956822260476379e+01
3.421115634456041832e+00 1.261333810395066557e+01
3.399861233827162543e+00 1.344316892975046329e+01
3.388984042584801681e+00 1.428243656471745382e+01
3.389210403606171873e+00 1.512516915907406734e+01
3.400780876855601598e+00 1.596623428936138112e+01
3.423441496530797323e+00 1.680148032366395938e+01
3.456456573571693447e+00 1.762782665972278195e+01
3.498642410384112722e+00 1.844329984228900798e+01
3.548420387342949844e+00 1.924701503604097397e+01
3.603887043540090040e+00 2.003910480270072725e+01
3.662898043479405619e+00 2.082059949633247342e+01
3.723162328398854193e+00 2.159326574508815355e+01
3.782342320915135225e+00 2.235941133653616575e+01
3.838155802870081512e+00 2.312166628666130919e+01
3.888475028790657095e+00 2.388275088647407784e+01
3.931418773092318464e+00 2.464524204175475219e+01
3.965433331479924384e+00 2.541134922948035069e+01
3.989358991270935295e+00 2.618271089036268151e+01
4.002479129491931076e+00 2.696022108468035938e+01
4.004549863053134651e+00 2.774389480372133576e+01
3.995809028385262085e+00 2.853277851660875086e+01
3.976964171228252187e+00 2.932491042355333377e+01
3.949160141342500374e+00 3.011733257609912329e+01
3.913927771983300108e+00 3.090615461592138047e+01
3.873115941652050420e+00 3.168666648366613714e+01
3.828810030587213031e+00 3.245349516518057698e+01
3.783240365946658468e+00 3.320079847612365143e+01
3.738684672828698652e+00 3.392248712960092405e+01
3.697368795320815416e+00 3.461246496375003545e+01
3.661370012506641736e+00 3.526487628865720581e+01
3.632527146796252104e+00 3.587434888642159336e+01
3.612361352257394298e+00 3.643622128484511080e+01
3.602010992900124720e+00 3.694674352192009792e+01
3.602183396445982844e+00 3.740324170047341568e+01
3.613125525646215586e+00 3.780423815418572531e+01
3.634614779432303600e+00 3.814952094262980609e+01
3.665970256463599419e+00 3.844015858238444139e+01
3.706083922404653563e+00 3.867845830916965610e+01
3.753470258317018526e+00 3.886786864896399152e+01
3.806332168367220437e+00 3.901282954648322487e+01
3.862640225173894049e+00 3.911857564978571844e+01
3.920221760650066223e+00 3.919090047762035312e+01
3.976855893518251861e+00 3.923589100829373422e+01
4.030370339400526802e+00 3.925964364553158958e+01
4.078735785607829456e+00 3.926797347508022540e+01
4.120153732649946221e+00 3.926612918220748583e+01
4.153134002234636135e+00 3.925852593278744251e+01
4.176558573589613133e+00 3.924850792961066048e+01
4.189729015683332669e+00 3.923815126361949979e+01
4.192395505527530375e+00 3.922811613096823891e+01
4.184766230401021581e+00 3.921755554469091010e+01
4.167496829138188197e+00 3.920408541464712471e+01
4.141660397126554649e+00 3.918381839498583474e+01
4.108699423500046244e+00 3.915146130765987209e+01
4.070361810579664841e+00 3.910047335156224335e+01
4.028623811111137876e+00 3.902327980804840024e+01
3.985603278778351743e+00 3.891153365916586893e+01
3.943467037882641524e+00 3.875641554043138370e+01
3.904336421608069152e+00 3.854896083843910759e+01
3.870195094886839993e+00 3.828040158179623376e+01
3.842803165210701533e+00 3.794251010981789562e+01
3.823621298283237824e+00 3.752793136414884856e+01
3.813748108190387676e+00 3.703049103915570583e+01
3.813873503751099570e+00 3.644546773059758493e+01
3.824249969923522396e+00 3.576981860049947670e+01
3.844682976520527262e+00 3.500234987148576948e+01
3.874540870513118573e+00 3.414382560118419718e+01
3.912783759392273186e+00 3.319701057793556487e+01
3.958010068378400081e+00 3.216664572416797796e+01
4.008518689508866473e+00 3.105935698881043550e+01
4.062383968870989293e+00 2.988350124902256866e+01
4.117540228407337466e+00 2.864895512138186362e+01
4.171872114333113224e+00 2.736685470792253838e+01
4.223306822400934024e+00 2.604929608885160164e+01
4.269904181036013213e+00 2.470900775193927856e+01
4.309940679207194592e+00 2.335900706666189919e+01
4.341983801647582908e+00 2.201225333695776598e+01
4.364953467161138967e+00 2.068130988854106178e+01
4.378167936918688774e+00 1.937802707480395981e+01
4.381372243578759651e+00 1.811325704959872240e+01
4.374747958665442304e+00 1.689660970480245084e+01
4.358903931290218026e+00 1.573625737141687431e+01
4.334848460386765190e+00 1.463879381466816376e+01
4.303944169026932443e+00 1.360915080598288185e+01
4.267847598097156414e+00 1.265057322392119943e+01
4.228436195243676643e+00 1.176465132034625682e+01
4.187725915172221924e+00 1.095140658337875728e+01
4.147783045977868177e+00 1.020942562491089056e+01
4.110634116282373185e+00 9.536034797546690811e+00
4.078177809610934901e+00 8.927506870446901388e+00
4.052102713048486571e+00 8.379290116368144581e+00
4.033814461625218506e+00 7.886249615970445603e+00
4.024375420154501448e+00 7.442910483887652973e+00
4.024459489114114774e+00 7.043693058372618943e+00
4.034323955186000177e+00 6.683130847900079274e+00
4.053799559560874677e+00 6.356063151758532648e+00
4.082299160837790097e+00 6.057795709754230096e+00
4.118844559096211277e+00 5.784224418360503606e+00
4.162110258777294014e+00 5.531918997225420576e+00
4.210482214642568444e+00 5.298165415388356614e+00
4.262128959017129404e+00 5.080967803434923269e+00
4.315081977613570707e+00 4.879012400732813504e+00
4.367321808223515234e+00 4.691597736200746382e+00
4.416866098137784746e+00 4.518536646384430533e+00
4.461855782223380196e+00 4.360036837823193068e+00
4.500635636868216771e+00 4.216567458371001997e+00
4.531825720944397062e+00 4.088719527325003433e+00
4.554380621916820360e+00 3.977068077399898982e+00
4.567633965080442060e+00 3.882043490906768479e+00
4.571326292761167309e+00 3.803818793136805265e+00
4.565615149612447077e+00 3.742218638787333962e+00
4.551066987910748374e+00 3.696654446797686955e+00
4.528631299018786471e+00 3.666088670646958647e+00
4.499598149431359495e+00 3.649029608297844174e+00
4.465541018508970339e+00 3.643556536200213358e+00
4.428247469025165195e+00 3.647373373487017290e+00
4.389640703672583300e+00 3.657887621169033654e+00
4.351695448306683645e+00 3.672310045854404681e+00
4.316351839483515640e+00 3.687769547813508630e+00
4.285431069911506796e+00 3.701436916366267482e+00
4.260556457946876208e+00 3.710650764495762921e+00
4.243083360502857282e+00 3.713038866391898285e+00
4.234040953916426986e+00 3.706628396873809184e+00
4.234088382032290099e+00 3.689939174451513981e+00
4.243487138255949809e+00 3.662054908642798701e+00
4.262090836429891283e+00 3.622668601459160698e+00
4.289352765300777470e+00 3.572099595205402434e+00
4.324350846284537475e+00 3.511281227255447668e+00
4.365828857964936915e+00 3.441719574629409362e+00
4.412252086131601025e+00 3.365425271813288877e+00
4.461874935684912558e+00 3.284821790155449950e+00
4.512817527255573502e+00 3.202634806669440337e+00
4.563147918934738811e+00 3.121768302317933674e+00
4.610966358350611749e+00 3.045173763747723417e+00
4.654487892269445481e+00 2.975719280081165596e+00
4.692119742889813594e+00 2.916065404881957424e+00
4.722530098013312916e+00 2.868554386099094966e+00
4.744705345511899708e+00 2.835118763525863450e+00
4.757993293881353836e+00 2.817214420157401644e+00
4.762130537557810683e+00 2.815781991907302384e+00
4.757252820937182491e+00 2.831239143822701365e+00
4.743887998201407719e+00 2.863504675332891658e+00
4.722931944646882485e+00 2.912053795127981903e+00
4.695608516178486624e+00 2.976002285373542389e+00
4.663415344784840322e+00 3.054215733397590782e+00
4.628057869211618325e+00 3.145438622240591009e+00
4.591374505323200239e+00 3.248436908730161665e+00
4.555256238097273425e+00 3.362146838637641633e+00
4.521564150770195134e+00 3.485822200139825799e+00
4.492048486578700484e+00 3.619172031613196783e+00
4.468272761781611813e+00 3.762480993662462581e+00
4.451546218968926105e+00 3.916705186777410308e+00
4.442867537497647845e+00 4.083537126171164822e+00
4.442882219825082579e+00 4.265434838347470503e+00
4.451855470564066941e+00 4.465611568519587848e+00
4.469661705746058367e+00 4.687984319594685978e+00
4.495791102817859652e+00 4.937081306953539972e+00
4.529372859088763192e+00 5.217910326339311844e+00
4.569214100048400340e+00 5.535791908826094065e+00
4.613852700755980862e+00 5.896162891282481944e+00
4.661621682736292627e+00 6.304357581249493414e+00
4.710722351439332378e+00 6.765374967783683857e+00
4.759302966686156822e+00 7.283641361851583618e+00
4.805539506508095471e+00 7.862778392730698229e+00
4.847715003100463882e+00 8.505386408525630770e+00
4.884294001398399310e+00 9.212853015441691440e+00
4.913988912498122197e+00 9.985195746988813070e+00
4.935815395733403221e+00 1.082094670494649513e+01
4.949134388559134123e+00 1.171708550105321045e+01
4.953678991032029799e+00 1.266902501089888844e+01
4.949565075764156497e+00 1.367065240248671820e+01
4.937285205648070274e+00 1.471442570563032959e+01
4.917686169329231305e+00 1.579152393658634423e+01
4.891931156615221710e+00 1.689204658057862929e+01
4.861448261815712435e+00 1.800525615816797398e+01
4.827867593546680602e+00 1.911985575016481320e+01
4.792949759315337843e+00 2.022429181177958668e+01
4.758508861180999361e+00 2.130707143950949956e+01
4.726333369277619489e+00 2.235708251803679047e+01
4.698108323322744972e+00 2.336390490541713660e+01
4.675342245193029989e+00 2.431810102968438159e+01
4.659301931537585872e+00 2.521147496473833627e+01
4.650957943940472461e+00 2.603729020350152368e+01
4.650943140990184688e+00 2.679043790759873644e+01
4.659526022688785574e+00 2.746754932304370911e+01
4.676600008175349821e+00 2.806704823298436224e+01
4.701689071218775773e+00 2.858914168162647584e+01
4.733969444787392788e+00 2.903574964975314643e+01
4.772306407309447884e+00 2.941037678925048837e+01
4.815304509369637387e+00 2.971793162933028043e+01
4.861369018879482695e+00 2.996450075283904724e+01
4.908775880294396821e+00 3.015708721808997339e+01
4.955747119966576797e+00 3.030332389366511947e+01
5.000528400726565792e+00 3.041117332030701448e+01
5.041465343889806050e+00 3.048862617382027906e+01
5.077075299406412334e+00 3.054341035499563262e+01
5.106111451702727955e+00 3.058272217783283153e+01
5.127616490526122561e+00 3.061299008845787739e+01
5.140963537569943398e+00 3.063967986776124874e+01
5.145882580429560704e+00 3.066714841376351686e+01
5.142471300857343053e+00 3.069855104448348371e+01
5.131189866493847340e+00 3.073580490130922982e+01
5.112839954443533230e+00 3.077960856853620086e+01
5.088528960758259778e+00 3.082951556374759150e+01
5.059620992284565411e+00 3.088405700329978743e+01
5.027676808572381972e+00 3.094090661023905753e+01
4.994385356955492128e+00 3.099707940257102479e+01
4.961489903053705852e+00 3.104915395902074238e+01
4.930711986480585729e+00 3.109350717174298140e+01
4.903676517905642740e+00 3.112654990587040160e+01
4.881841275418274506e+00 3.114495201771464394e+01
4.866433858277597224e+00 3.114584573751943708e+01
4.858398823669480393e+00 3.112699747661626049e+01
4.858357281838289410e+00 3.108693962824510848e+01
4.866580676815055462e+00 3.102505583142498580e+01
4.882979858033317022e+00 3.094161537566843378e+01
4.907109879666580632e+00 3.083775484441202153e+01
4.938190278749241102e+00 3.071540762005786362e+01
4.975139909950184069e+00 3.057718439125801524e+01
5.016624783522341424e+00 3.042621020062368231e+01
5.061116790826710954e+00 3.026592573977152512e+01
5.106960733217565718e+00 3.009986243893574454e+01
5.152446715136648869e+00 2.993140232415766988e+01
5.195884736160880202e+00 2.976353455754381372e+01
5.235678228996028416e+00 2.959862098701694677e+01
5.270393344481174580e+00 2.943818288595081256e+01
5.298820977852725100e+00 2.928272035882629609e+01
5.320028854057469836e+00 2.913157464979957467e+01
5.333401429389794224e+00 2.898284186378014482e+01
5.338665902739887947e+00 2.883334446318072608e+01
5.335903238706491081e+00 2.867866442603421007e+01
5.325543760057575682e+00 2.851323924639449814e+01
5.308347539883685684e+00 2.833051914088783008e+01
5.285370484946290581e+00 2.812318101746321375e+01
5.257917622429356896e+00 2.788339208663590796e+01
5.227485655639972251e+00 2.760311357069855731e+01
5.195697316252326559e+00 2.727443290225632566e+01
5.164230391565139300e+00 2.688991119586445677e+01
5.134744529946786429e+00 2.644293170314789876e+01
5.108809016704999095e+00 2.592803447845410503e+01
5.087834662498560867e+00 2.534122262032999728e+01
5.073012759629499158e+00 2.468022621937504368e+01
5.065263746584683702e+00 2.394471151416074406e+01
5.065197792057726467e+00 2.313642468674965613e+01
5.073088985339134993e+00 2.225926214636986700e+01
5.088864223469321324e+00 2.131926196084382852e+01
5.112107243048265026e+00 2.032451418931698939e+01
5.142077584167169313e+00 1.928499112205830457e+01
5.177743624363603914e+00 1.821230171056295788e+01
5.217828210049233029e+00 1.711937763789089217e+01
5.260864867999014649e+00 1.602010140185254627e+01
5.305262123777954031e+00 1.492888933736764123e+01
5.349373107038307928e+00 1.386024457777318375e+01
5.391567400285027567e+00 1.282829645518572903e+01
5.430301997402703584e+00 1.184634369688081179e+01
5.464188284571967813e+00 1.092641894338033381e+01
5.492052136830761988e+00 1.007889157770014954e+01
5.512984530269788408e+00 9.312124625991092586e+00
5.526380489033613230e+00 8.632199608227949739e+00
5.531964699414546160e+00 8.042720751542919544e+00
5.529802707809533757e+00 7.544707020880665915e+00
5.520297249550983665e+00 7.136577085667508591e+00
5.504169904070761454e+00 6.814228757642243117e+00
5.482428910245431553e+00 6.571210745904523698e+00
5.456324576332508336e+00 6.398980928417702607e+00
5.427294255587367111e+00 6.287241882268270743e+00
5.396899308241844828e+00 6.224341289318204851e+00
5.366756813660658487e+00 6.197722168800909870e+00
5.338469018488678941e+00 6.194405795781676716e+00
5.313553598083705864e+00 6.201488733956856514e+00
5.293377765823342962e+00 6.206634706753566988e+00
5.279099090156634588e+00 6.198542087098845244e+00
5.271615580462288619e+00 6.167368608119084605e+00
5.271527193172770964e+00 6.105096458161174411e+00
5.279110407324108856e+00 6.005823167662054374e+00
5.294306945776694029e+00 5.865966538389032259e+00
5.316727099931264355e+00 5.684375198590013056e+00
5.345667478864976729e+00 5.462340061319835627e+00
5.380142376204767096e+00 5.203505872966647239e+00
5.418927357038580972e+00 4.913686010468827803e+00
5.460613138384194265e+00 4.600587561085909272e+00
5.503667393062112723e+00 4.273457342908447920e+00
5.546501767372851610e+00 3.942662751690552803e+00
5.587541182288817687e+00 3.619224019175649509e+00
5.625292395274530399e+00 3.314316529279835333e+00
5.658408839071922714e+00 3.038763175542151806e+00
5.685748922821831641e+00 2.802537298752558304e+00
5.706425272074767463e+00 2.614296491011814272e+00
5.719842784615682518e+00 2.480966496992999648e+00
5.725723870905773616e+00 2.407392622051932829e+00
5.724119809702600925e+00 2.396073537732505976e+00
5.715407756443124043e+00 2.446989253667707143e+00
5.700273567728748603e+00 2.557531420569072012e+00
5.679681222454046718e+00 2.722540181058995756e+00
5.654830201919216925e+00 2.934447646638969953e+00
5.627102712415485541e+00 3.183523911131448170e+00
5.598003071720258461e+00 3.458217476078049302e+00
5.569091916813053267e+00 3.745578219545567134e+00
5.541918109531755121e+00 4.031747733194458228e+00
5.517951310548341759e+00 4.302499113017460353e+00
5.498518156162678139e+00 4.543806224539549632e+00
5.484744808848786235e+00 4.742421154912543457e+00
5.477508368654504523e+00 4.886438064201969134e+00
5.477399241080360248e+00 4.965821976746212840e+00
5.484696075237496693e+00 4.972882199026317451e+00
5.499354335087277335e+00 4.902671969553108688e+00
5.521008970544291294e+00 4.753298565447059865e+00
5.548991040227987170e+00 4.526131309243162981e+00
5.582357530497082720e+00 4.225898614613575077e+00
5.619933042507406995e+00 3.860669239699042521e+00
5.660361505265970372e+00 3.441717127648567853e+00
5.702165640243712197e+00 2.983273445460218998e+00
5.743811570702131775e+00 2.502173523870543814e+00
5.783775750729150289e+00 2.017410198605099403e+00
5.820611294312340256e+00 1.549608414682777546e+00
5.853010817443485614e+00 1.120438756203769426e+00
5.879863064545203244e+00 7.519897020557089196e-01
5.900300867259296034e+00 4.661198073546790055e-01
5.913738366529722512e+00 2.838116242653436760e-01
5.919895901039313735e+00 2.245489877370980547e-01
5.918811505665655837e+00 3.057383161989636888e-01
5.910838549019799437e+00 5.421928589939383203e-01
5.896629643732436143e+00 9.456964339684874599e-01
5.877107560591955604e+00 1.524660237735184998e+00
5.853424441920651589e+00 2.283882896106312010e+00
5.826911116205166330e+00 3.224420187426331186e+00
5.799018743043967916e+00 4.343566961904785195e+00
5.771255346521858343e+00 5.634949845181005834e+00
5.745120012058198000e+00 7.088725502636483711e+00
5.722037617404978072e+00 8.691875693802346703e+00
5.703296938893610779e+00 1.042858719250035371e+01
5.689994820813502940e+00 1.228070199967005571e+01
5.682988825886760687e+00 1.422822122223193553e+01
5.682860410196564516e+00 1.624984459817386906e+01
5.689890203166653393e+00 1.832352695377612761e+01
5.704046442619031154e+00 2.042703289398360766e+01
5.724987039806249456e+00 2.253847173394796854e+01
5.752075154759698883e+00 2.463679603450678357e+01
5.784407574247828698e+00 2.670224903814955653e+01
5.820854628685735221e+00 2.871674872482615726e+01
5.860109884617447307e+00 3.066419901145235016e+01
5.900747427539827505e+00 3.253072168513568840e+01
5.941284224051549323e+00 3.430480586034609303e+01
5.980244836567950806e+00 3.597737495453056056e+01
6.016225667298096269e+00 3.754177425803163715e+01
6.047955934781415799e+00 3.899368501369659157e+01
6.074352734600966031e+00 4.033097341306489625e+01
6.094567799211323411e+00 4.155348497009892839e+01
6.108023938425350963e+00 4.266279628078169139e+01
6.114439595813880857e+00 4.366193717076350111e+01
6.113840477140202623e+00 4.455509665078248815e+01
6.106557772157458430e+00 4.534732594239076775e+01
6.093213075932990996e+00 4.604425112997489578e+01
6.074690694825682691e+00 4.665180678680168569e+01
6.052098570132827149e+00 4.717600028026536307e+01
6.026719545451456383e+00 4.762271446862680335e+01
5.999955120617897819e+00 4.799755425496476846e+01
5.973264157708650046e+00 4.830574006878993032e+01
5.948099219161259832e+00 4.855204891054633265e+01
5.925843315490848973e+00 4.874080122684351579e+01
5.907749816344406213e+00 4.887588968705252768e+01
5.894888135040754484e+00 4.896084399746530380e+01
5.888097539795246860e+00 4.899892429668322791e+01
5.887951085954840735e+00 4.899323448780906887e+01
5.894731218609559953e+00 4.894684612294537374e+01
5.908418083461220327e+00 4.886292318657459788e+01
5.928691028226678483e+00 4.874483832864222421e+01
5.954943201420862309e+00 4.859627175682580713e+01
5.986308585198552912e+00 4.842128507216347089e+01
6.021700258850922971e+00 4.822436376692106563e+01
6.059858203006283084e+00 4.801042382735422365e+01
6.099404542647673289e+00 4.778477981431330335e+01
6.138903807514424216e+00 4.755307384102258794e+01
6.176925575020138837e+00 4.732116693557203746e+01
6.212106762568918583e+00 4.709499627172865388e+01
6.243210857121738400e+00 4.688040358597972812e+01
6.269181508895446342e+00 4.668294168981056202e+01
6.289188166865793406e+00 4.650766726420570762e+01
6.302661785143323314e+00 4.635892903277685662e+01
6.309319065784228187e+00 4.624016091193566069e+01
6.309174206005458529e+00 4.615368981038786700e+01
6.302537664080614555e+00 4.610056739393259306e+01
6.290002024520903845e+00 4.608043436170041218e+01
6.272415604792270116e+00 4.609142463081919061e+01
6.250844978339062941e+00 4.613011534828663684e+01
6.226528068946783456e+00 4.619152690542109951e+01
6.200819878678661468e+00 4.626917519626774578e+01
6.175133228180440526e+00 4.635517631879417166e+01
6.150877100465987013e+00 4.644040185251996888e+01
6.129395278345429965e+00 4.651468084444583440e+01
6.111907947351335579e+00 4.656704277935525482e+01
6.099458801400465369e+00 4.658599417641201512e+01
6.092869943593631987e+00 4.655982010707980834e+01
6.092706530395769704e+00 4.647690092272816997e+01
6.099252679136333732e+00 4.632603385210990865e+01
6.112499665155762152e+00 4.609674890137458192e+01
6.132146897616654435e+00 4.577960866778688853e+01
6.157615605492334332e+00 4.536648225146998215e+01
6.188074611853044082e+00 4.485078438989822303e+01
6.222477049383789094e+00 4.422767220551914846e+01
6.259606395898481779e+00 4.349419349319559558e+01
6.298129806008960330e+00 4.264938221642366045e+01
6.336656401449437759e+00 4.169429875758979875e+01
6.373797971328462708e+00 4.063201440188972668e+01
6.408229433769975003e+00 3.946754145012817361e+01
6.438746426137020862e+00 3.820771217802747799e+01
6.464317521385786414e+00 3.686101151992771463e+01
6.484128807168567654e+00 3.543736979210201810e+01
6.497618901461165386e+00 3.394792293514703374e+01
6.504502898857283277e+00 3.240474860826837045e+01
6.504784226770836675e+00 3.082058698669194996e+01
6.498753919371859311e+00 2.920855528718780647e+01
6.486977366038574111e+00 2.758186488049025442e+01
6.470269136496820117e+00 2.595354936175190019e+01
6.449657002894086055e+00 2.433621117224059205e+01
6.426336747311334641e+00 2.274179333942166537e+01
6.401619741361874283e+00 2.118138167934592531e+01
6.376875595362138327e+00 1.966504144229321938e+01
6.353472384722916644e+00 1.820169094104993235e+01
6.332717061749554510e+00 1.679901324317001965e+01
6.315798647793552156e+00 1.546340559449847873e+01
6.303736674469625711e+00 1.419996492723855219e+01
6.297337109161879276e+00 1.301250664141578284e+01
6.297157669668726143e+00 1.190361287466663498e+01
6.303484020160184720e+00 1.087470572270718705e+01
6.316317863772783703e+00 9.926140361361065700e+00
6.335377427042232945e+00 9.057312758798124364e+00
6.360110290704833247e+00 8.266776650259645365e+00
6.389717983773963716e+00 7.552364662650129290e+00
6.423191246621303918e+00 6.911308898672332113e+00
6.459354406275019223e+00 6.340356886950062609e+00
6.496916913334622734e+00 5.835879536495546027e+00
6.534529781810156202e+00 5.393968557095965011e+00
6.570844464070715318e+00 5.010521675596377733e+00
6.604571591848738876e+00 4.681314845527332125e+00
6.634537025089896289e+00 4.402061470174785995e+00
6.659732772671747902e+00 4.168459397402937583e+00
6.679360577101125074e+00 3.976227064772251740e+00
6.692866279097458460e+00 3.821130649733223361e+00
6.699963483193587699e+00 3.699004394478512925e+00
6.700645514329370833e+00 3.605766420163323271e+00
6.695185167337608156e+00 3.537432321739065078e+00
6.684122283846929413e+00 3.490128652698842870e+00
6.668239721219296534e+00 3.460108086974980512e+00
6.648528782617844080e+00 3.443767608529766822e+00
6.626145634246368488e+00 3.437670558941396060e+00
6.602360625402696748e+00 3.438572804484948620e+00
6.578502732412882636e+00 3.443452703782560409e+00
6.555901555615782250e+00 3.449544001990498820e+00
6.535829400478331941e+00 3.454370282662755365e+00
6.519445965401309273e+00 3.455779205055782288e+00
6.507748040410569423e+00 3.451974468465871748e+00
6.501526398081442615e+00 3.441543295221286769e+00
6.501331740620956090e+00 3.423477221463898434e+00
6.507451169038110272e+00 3.397184132819767388e+00
6.519896179252318014e+00 3.362489774998712821e+00
6.538402686026075550e+00 3.319627393620889766e+00
6.562443050787682530e+00 3.269214692014315915e+00
6.591249566631868895e+00 3.212217912832269651e+00
6.623848355810479482e+00 3.149903516576353368e+00
6.659102183495584804e+00 3.083778611629949928e+00
6.695760306086677716e+00 3.015521948858395973e+00
6.732513169508781203e+00 2.946907892304178045e+00
6.768049565839284298e+00 2.879726281431578716e+00
6.801113754047697135e+00 2.815701479346580882e+00
6.830560056904034560e+00 2.756414130802120610e+00
6.855402560727489991e+00 2.703229216087021047e+00
6.874857762414368523e+00 2.657233872699711341e+00
6.888378319422424845e+00 2.619188165380895938e+00
6.895676449368934868e+00 2.589491524891440299e+00
6.896735979443175957e+00 2.568166963823844018e+00
6.891812542071456882e+00 2.554864438670505500e+00
6.881421930512531482e+00 2.548883893190271532e+00
6.866317143736184292e+00 2.549217626169216544e+00
6.847455141594857686e+00 2.554610718063933916e+00
6.825954777565474529e+00 2.563637368711002118e+00
6.803047757870520407e+00 2.574790185047914015e+00
6.780024776083456217e+00 2.586578754132201841e+00
6.758179178459316816e+00 2.597633278945452151e+00
6.738750618403201997e+00 2.606808672761567358e+00
6.722871154395606119e+00 2.613284324881218534e+00
6.711516134712354642e+00 2.616654780120106771e+00
6.705461999438138143e+00 2.617006820792832311e+00
6.705252825036499331e+00 2.614978897265372915e+00
6.711177052569924584e+00 2.611799505757111728e+00
6.723255394437289922e+00 2.609301934901731013e+00
6.741240425764483568e+00 2.609913762207870302e+00
6.764627856707003062e+00 2.616620537635402588e+00
6.792678973151208943e+00 2.632904198440347621e+00
6.824453247785329246e+00 2.662657868478403689e+00
6.858849682359550393e+00 2.710079756521439620e+00
6.894655064293484514e+00 2.779549833325992925e+00
6.930597022956231257e+00 2.875493791196158888e+00
6.965399565760039380e+00 3.002239433223699017e+00
6.997838670441171693e+00 3.163871070379351558e+00
7.026795511887232948e+00 3.364087700357314414e+00
7.051305009323961315e+00 3.606070689958233988e+00
7.070597587730564015e+00 3.892366381216428195e+00
7.084132346759400178e+00 4.224788499999927893e+00
7.091620207991808478e+00 4.604344484921249148e+00
7.093036050477684817e+00 5.031188904699630982e+00
7.088619325947215444e+00 5.504606033123864428e+00
7.078863147801553346e+00 6.023022449191844707e+00
7.064492350053786396e+00 6.584049277789835841e+00
7.046431491934082914e+00 7.184552438270697117e+00
7.025764220050767506e+00 7.820748079858846680e+00
7.003685773890611088e+00 8.488319307304564632e+00
6.981450715878412261e+00 9.182549386568391370e+00
6.960318171468581561e+00 9.898465910788145194e+00
6.941496969080514390e+00 1.063098993495728273e+01
6.926093069750465681e+00 1.137508387692297518e+01
6.915061572338673024e+00 1.212589204435223067e+01
6.909165376722597784e+00 1.287886798193964033e+01
6.908942293659931622e+00 1.362988342782147555e+01
6.914682018877698511e+00 1.437531449856116872e+01
6.926413956736363176e+00 1.511210175295452096e+01
6.943906404466776650e+00 1.583778197162740753e+01
6.966677112216283163e+00 1.655049077980829964e+01
6.994014738601640246e+00 1.724893657734675045e+01
7.025010247731542812e+00 1.793234756288067544e+01
7.058596862325596355e+00 1.860039488784130413e+01
7.093596817331537352e+00 1.925309609320209248e+01
7.128772865343312226e+00 1.989070391528179371e+01
7.162882281779993754e+00 2.051358625196640872e+01
7.194731012894764355e+00 2.112210352269102387e+01
7.223225607640273438e+00 2.171648981118237032e+01
7.247420675126305056e+00 2.229674403876354560e+01
7.266559808301358281e+00 2.286253698074398955e+01
7.280108202733640788e+00 2.341313922521957736e+01
7.287775564247271021e+00 2.394737421148254697e+01
7.289528324658387959e+00 2.446359931486919592e+01
7.285590652314023252e+00 2.495971661697868882e+01
7.276434233129155160e+00 2.543321357337628186e+01
7.262757287009583784e+00 2.588123232912651872e+01
7.245453752630714561e+00 2.630066500232874205e+01
7.225574000165648769e+00 2.668827092342005969e+01
7.204278798210548729e+00 2.704081064619159136e+01
7.182788551976145186e+00 2.735519059184352386e+01
7.162330032267180790e+00 2.762861149775662639e+01
7.144082920192922792e+00 2.785871345464074267e+01
7.129128496519668623e+00 2.804371025307384357e+01
7.118402707094475979e+00 2.818250603271771126e+01
7.112655641260385408e+00 2.827478782939862256e+01
7.112419177289425853e+00 2.832108852663688126e+01
7.117984190055373972e+00 2.832281590476127064e+01
7.129388297213610670e+00 2.828224489520896867e+01
7.146414659404090486e+00 2.820247173170212207e+01
7.168601867585786103e+00 2.808733037678040390e+01
7.195264467596501845e+00 2.794127331887215604e+01
7.225523209451549356e+00 2.776922050619386440e+01
7.258343686859188182e+00 2.757638173428257033e+01
7.292581669255459254e+00 2.736805916273060646e+01
7.327033140060174254e+00 2.714943773954464135e+01
7.360486853274451846e+00 2.692537210425927441e+01
7.391777114605630139e+00 2.670017898172889659e+01
7.419834487470190254e+00 2.647744414011405567e+01
7.443732218569169667e+00 2.625985265761077869e+01
7.462726367973743002e+00 2.604905052826315526e+01
7.476287906349530665e+00 2.584554455980496357e+01
7.484125394841025347e+00 2.564864611401695171e+01
7.486197275733520229e+00 2.545646256536872798e+01
7.482713256234692523e+00 2.526593847221041855e+01
7.474124743715081287e+00 2.507294644202087497e+01
7.461104767746893351e+00 2.487242561072882907e+01
7.444518281504198143e+00 2.465856363199747747e+01
7.425384152652768854e+00 2.442501617165747518e+01
7.404830513644584222e+00 2.416515620753518334e+01
7.384045427766296577e+00 2.387234402083796070e+01
7.364225028021403219e+00 2.354020769653957146e+01
7.346521392353948521e+00 2.316292327792736216e+01
7.331992426372307747e+00 2.273548347986880458e+01
7.321555933437483787e+00 2.225394407414995968e+01
7.315949865887635184e+00 2.171563771760773776e+01
7.315700478542106922e+00 2.111934608015076620e+01
7.321099758489094000e+00 2.046542260737063401e+01
7.332193098754650862e+00 1.975586006666513228e+01
7.348777735580608983e+00 1.899429910722659187e+01
7.370411999283735582e+00 1.818597633141974867e+01
7.396434957525830356e+00 1.733761273770596745e+01
7.425995577819503701e+00 1.645724575793603606e+01
7.458090122883840323e+00 1.555401037788833918e+01
7.491606135981546899e+00 1.463787690552046428e+01
7.525371089047001583e+00 1.371935474941983912e+01
7.558203566518378658e+00 1.280917301371990114e+01
7.588964750880366594e+00 1.191794974237735261e+01
7.616607966510635208e+00 1.105586220878254089e+01
7.640224126749299849e+00 1.023233071841450048e+01
7.659081111166044842e+00 9.455727964823609000e+00
7.672655367697525541e+00 8.733125065280354704e+00
7.680654375867304928e+00 8.070084034763006287e+00
7.683029007677983024e+00 7.470504687350367767e+00
7.679975264446624372e+00 6.936531851310609120e+00
7.671925331529860337e+00 6.468526431312207059e+00
7.659528358320615737e+00 6.065101342281132624e+00
7.643621817817864539e+00 5.723220775717860143e+00
7.625194709037709906e+00 5.438358745029627350e+00
7.605344218794239275e+00 5.204710494631954454e+00
7.585227741639980259e+00 5.015448245693752582e+00
7.566012355836786440e+00 4.863010977292447912e+00
7.548823960595711036e+00 4.739416579934410123e+00
7.534698290952736244e+00 4.636583826898721838e+00
7.524535941208681855e+00 4.546651226669191637e+00
7.519063349737714397e+00 4.462279965052061037e+00
7.518801435070371575e+00 4.376928814993638284e+00
7.524043237073773760e+00 4.285090060509516796e+00
7.534841522545744574e+00 4.182477102653852974e+00
7.551006878887998930e+00 4.066156425248057538e+00
7.572116361773947979e+00 3.934618914888103891e+00
7.597532302851820241e+00 3.787788059154922671e+00
7.626430441561911522e+00 3.626965185244452883e+00
7.657836140318411644e+00 3.454714539638101378e+00
7.690667092187377207e+00 3.274693538590917719e+00
7.723780649943415177e+00 3.091435833713333192e+00
7.756023707104660048e+00 2.910096839701844296e+00
7.786282953730586875e+00 2.736172977677477913e+00
7.813533316972361753e+00 2.575207028965533773e+00
7.836882478991922696e+00 2.432492620756300017e+00
7.855609539160893107e+00 2.312790948284880521e+00
7.869196145673839737e+00 2.220072371696569125e+00
7.877348752476722282e+00 2.157294526133973989e+00
7.880011046196394808e+00 2.126227089499002076e+00
7.877366017529960018e+00 2.127331423220854667e+00
7.869827603528464444e+00 2.159701014975471622e+00
7.858022281661045660e+00 2.221066101642547697e+00
7.842761433674525051e+00 2.307863140304160510e+00
7.825005698055448100e+00 2.415367036416069091e+00
7.805822876955383904e+00 2.537881345644225295e+00
7.786341241725065920e+00 2.668979151383877202e+00
7.767700278705346406e+00 2.801785089014241503e+00
7.751001025169384384e+00 2.929287134710185647e+00
7.737258159729564433e+00 3.044665380245509034e+00
7.727355931632464703e+00 3.141624136374965293e+00
7.722009842802214585e+00 3.214713385740378460e+00
7.721735742824677118e+00 3.259625858731666881e+00
7.726827671481297344e+00 3.273456825709570861e+00
7.737345400233310855e+00 3.254915056460914169e+00
7.753112200014853350e+00 3.204475240449479845e+00
7.773722916349263379e+00 3.124464416916989506e+00
7.798561983639164197e+00 3.019077542458296293e+00
7.826830578066386934e+00 2.894320121961812209e+00
7.857581711683526038e+00 2.757878733925770653e+00
7.889761726216597104e+00 2.618923175420877048e+00
7.922256368730892895e+00 2.487846717613594105e+00
7.953939434574963663e+00 2.375953486812335314e+00
7.983721854350939395e+00 2.295104164909937072e+00
8.010599085662811092e+00 2.257332947029380588e+00
8.033694747614305243e+00 2.274449930725945812e+00
8.052298602957213447e+00 2.357643788285879616e+00
8.065897242014983703e+00 2.517099662142408878e+00
8.074196143039436890e+00 2.761646717729287825e+00
8.077132161425595314e+00 3.098448706898117688e+00
8.074875918664391250e+00 3.532749280456956686e+00
8.067824002763654079e+00 4.067681704331581827e+00
8.056581335872715854e+00 4.704150163381850547e+00
8.041934492661113154e+00 5.440787078911586860e+00
8.024817146013223379e+00 6.273987931091107306e+00
8.006269157742996967e+00 7.198022083843496510e+00
7.987391106527110374e+00 8.205215177693066408e+00
7.969296241243678303e+00 9.286195903646586203e+00
7.953061956976873681e+00 1.043019750911929044e+01
7.939682908482136092e+00 1.162540231417241721e+01
7.930027801287272027e+00 1.285931591599131885e+01
7.924801737220578346e+00 1.411915669544788265e+01
7.924515746264738425e+00 1.539224575374704251e+01
7.929464821030636656e+00 1.666638251796173265e+01
7.939715397683397846e+00 1.793019195580442471e+01
7.955102814151167046e+00 1.917343060227774032e+01
7.975238840955823250e+00 2.038724037107747478e+01
7.999528941033944740e+00 2.156434132830427686e+01
8.027198491590318952e+00 2.269915715407277901e+01
8.057326811766907682e+00 2.378786980397903861e+01
8.088887501617088915e+00 2.482840279253787230e+01
8.120793325213830016e+00 2.582033543518317842e+01
8.151943675460424643e+00 2.676475318484958166e+01
8.181272548709255688e+00 2.766404176905057355e+01
8.207794938257302775e+00 2.852163506892215139e+01
8.230649627873788177e+00 2.934172849200104238e+01
8.249136526440716821e+00 3.012897090230579522e+01
8.262746925453262392e+00 3.088814893197148947e+01
8.271185371924602237e+00 3.162387767841457986e+01
8.274382216522926825e+00 3.234031138392760596e+01
8.272496304449845184e+00 3.304088671906203700e+01
8.265907706829214163e+00 3.372810978892631795e+01
8.255200824432744611e+00 3.440339601604978270e+01
8.241138614511505978e+00 3.506696970724719620e+01
8.224629077100258812e+00 3.571782748311034794e+01
8.206685472667812675e+00 3.635376694709511014e+01
8.188382013862483433e+00 3.697147911348507421e+01
8.170806968641713297e+00 3.756670031888265271e+01
8.155015221922452540e+00 3.813441672676694338e+01
8.141982363385325883e+00 3.866911220811385874e+01
8.132562299452933630e+00 3.916504844026474785e+01
8.127450230909586182e+00 3.961656459245396888e+01
8.127152601088377892e+00 4.001838302176076922e+01
8.131965313446272603e+00 4.036590702810725872e+01
8.141961155118449867e+00 4.065549692825889139e+01
8.156986960556144695e+00 4.088471149950497363e+01
8.176670624199841697e+00 4.105250318293917644e+01
8.200437641880018447e+00 4.115935727063570937e+01
8.227536445975109913e+00 4.120736755682268893e+01
8.257071417336019792e+00 4.120024351935786910e+01
8.288042124199865412e+00 4.114324690977721133e+01
8.319387069188881156e+00 4.104305855393135261e+01
8.350030031651694884e+00 4.090757908204433591e+01
8.378926982385062061e+00 4.074567009832838238e+01
8.405111525854476184e+00 4.056684485237273918e+01
8.427736892230401011e+00 4.038091968320740932e+01
8.446112654818149323e+00 4.019763928173416190e+01
8.459734580975110774e+00 4.002629008498234953e+01
8.468306326132809758e+00 3.987531682350677187e+01
8.471752037835855731e+00 3.975195736070660502e+01
8.470219334124946542e+00 3.966191048297176280e+01
8.464072540755111618e+00 3.960905023922941837e+01
8.453876496314499889e+00 3.959519882762787546e+01
8.440371644790158001e+00 3.961996794715324910e+01
8.424441513653649238e+00 3.968067605326378811e+01
8.407074005665903016e+00 3.977234617516546678e+01
8.389318200020797534e+00 3.988778597597913489e+01
8.372238551596772993e+00 4.001774868109220051e+01
8.356868487665641609e+00 4.015117048266655786e+01
8.344165424718690716e+00 4.027547716599747218e+01
8.334969163224840827e+00 4.037695010619259506e+01
8.329965468090055225e+00 4.044113955074990940e+01
8.329656414002990061e+00 4.045331131975557781e+01
8.334338777800729403e+00 4.039891178746329814e+01
8.344091407514895309e+00 4.026403530345375259e+01
8.358772105297495258e+00 4.003587809285662047e+01
8.378024146134034567e+00 3.970316314484180253e+01
8.401292134255767152e+00 3.925652163560505414e+01
8.427846492766967401e+00 3.868881799351643025e+01
8.456815506891887324e+00 3.799540773725028231e+01
8.487223513717120582e+00 3.717431962264637235e+01
8.518033565557789899e+00 3.622635632693731367e+01
8.548192701596736498e+00 3.515511077590328171e+01
8.576677851517541029e+00 3.396689817067198192e+01
8.602540370183831442e+00 3.267060668492042197e+01
8.624947264963623184e+00 3.127747257165937356e+01
8.643217324203170904e+00 2.980078794014553267e+01
8.656850580100112325e+00 2.825555164727120072e+01
8.665549831905288158e+00 2.665807551785018248e+01
8.669233303147791503e+00 2.502555940548398894e+01
8.668037894197746951e+00 2.337564939025253352e+01
8.662312902011914062e+00 2.172599366184002889e+01
8.652604494428844717e+00 2.009381035825138895e+01
8.639631628783909889e+00 1.849548084279811988e+01
8.624254476387463342e+00 1.694618064655301737e+01
8.607436739397844150e+00 1.545955863824716481e+01
8.590203510734422565e+00 1.404747298147234957e+01
8.573596519495191970e+00 1.271979018436104525e+01
8.558628715614036153e+00 1.148425113180105761e+01
8.546240173484228819e+00 1.034640551089822935e+01
8.537257233974859361e+00 9.309613593135837917e+00
8.532356660427932837e+00 8.375112014069221900e+00
8.532036363230224296e+00 7.542138078665879597e+00
8.536593959145610810e+00 6.808105292176012568e+00
8.546114088429817457e+00 6.168821333972565490e+00
8.560465029860770514e+00 5.618738600906686642e+00
8.579304747941696618e+00 5.151226776194477885e+00
8.602096095384059282e+00 4.758856640786406800e+00
8.628130495479153339e+00 4.433684529975597144e+00
8.656559060455938592e+00 4.167527425112316664e+00
8.686429779420082653e+00 3.952219619604930845e+00
8.716729146953129614e+00 3.779843157286675748e+00
8.746426412277841678e+00 3.642925746140494248e+00
8.774518517292303699e+00 3.534601529715896362e+00
8.800073764491799011e+00 3.448731875964416993e+00
8.822272313901693863e+00 3.379985140830731094e+00
8.840441748987954540e+00 3.323876105801883529e+00
8.854086168837529414e+00 3.276767403805519230e+00
8.862907548135403601e+00 3.235836673338134961e+00
8.866818445130224546e+00 3.199014363845122944e+00
8.865945516043431951e+00 3.164898015857299907e+00
8.860623695704273217e+00 3.132649430624261377e+00
8.851381311065100732e+00 3.101881413869450821e+00
8.838916788935515356e+00 3.072540729314816144e+00
8.824067984590877600e+00 3.044793546345490043e+00
8.807775477985140711e+00 3.018919042109425188e+00
8.791041445249117459e+00 2.995215962245672436e+00
8.774885903696016953e+00 2.973925906227084859e+00
8.760302240483079927e+00 2.955175939559573806e+00
8.748213963625252276e+00 2.938941906303760287e+00
8.739434558096279559e+00 2.925032583168931666e+00
8.734632191839990512e+00 2.913093640614357938e+00
8.734300802773180550e+00 2.902629312389000571e+00
8.738738817708311402e+00 2.893038771265556530e+00
8.748036419858465251e+00 2.883663504937672872e+00
8.762071907846017638e+00 2.873841511099104018e+00
8.780517292259286677e+00 2.862963901829200797e+00
8.802852873110648346e+00 2.850529529483304625e+00
8.828390150599206621e+00 2.836193511930677147e+00
8.856302059385686931e+00 2.819806025058108290e+00
8.885659198890548893e+00 2.801438415164612117e+00
8.915470472705285587e+00 2.781394524329775741e+00
8.944726360286123779e+00 2.760206072043768444e+00
8.972442931856669190e+00 2.738611945479852761e+00
8.997704687664210610e+00 2.717522265535274428e+00
9.019704356599053341e+00 2.697969063090894792e+00
9.037777924233385107e+00 2.681046269464722798e+00
9.051433370572546266e+00 2.667842451447115515e+00
9.060371873972341561e+00 2.659370266479823997e+00
9.064500567640653372e+00 2.656496948320010265e+00
9.063936304457639537e+00 2.659880239073340924e+00
9.059000278374083948e+00 2.669914052131751259e+00
9.050203749247042850e+00 2.686687786195553151e+00
9.038225505270654381e+00 2.709962628429686049e+00
9.023882056299685317e+00 2.739167410780146472e+00
9.008091866734826425e+00 2.773415652896365824e+00
8.991835194561017985e+00 2.811544381127069503e+00
8.976111292443825107e+00 2.852174204692567105e+00
8.961894839339892727e+00 2.893789009981420968e+00
8.950093502065239903e+00 2.934832555755388483e+00
8.941508474451930866e+00 2.973818268355169714e+00
8.936799709477092790e+00 3.009447695545961476e+00
8.936457352942404953e+00 3.040732423224709713e+00
8.940780615025071043e+00 3.067113825654736115e+00
8.949864990266766185e+00 3.088574832422235961e+00
8.963598371578484603e+00 3.105737968311635289e+00
8.981666215572399636e+00 3.119944258602647569e+00
9.003565521936353733e+00 3.133308182935992114e+00
9.028627005840213826e+00 3.148744685410028499e+00
9.056044486214529954e+00 3.169965275808164229e+00
9.084910199646287765e+00 3.201441446242140554e+00
9.114254493181604744e+00 3.248334930756721750e+00
9.143088160605913117e+00 3.316395698623711308e+00
9.170445573920698479e+00 3.411829937850384464e+00
9.195426729568080049e+00 3.541141595618658489e+00
9.217236378762473592e+00 3.710952240342639818e+00
9.235218540793145081e+00 3.927805043222493353e+00
9.248884901612495213e+00 4.197959499360272240e+00
9.257935868461199647e+00 4.527184081830947449e+00
9.262273372916542513e+00 4.920554318746016342e+00
9.262004875503823342e+00 5.382263786770114855e+00
9.257438409109012056e+00 5.915455220270633419e+00
9.249068889109349101e+00 6.522078351133595575e+00
9.237556298366031982e+00 7.202780240166819503e+00
9.223696708446174952e+00 7.956832768115534193e+00
9.208387409308066651e+00 8.782100663872553170e+00
9.192587674701808709e+00 9.675052009067119485e+00
9.177276878675224125e+00 1.063081162780892974e+01
9.163411791718321098e+00 1.164325620793354510e+01
9.151884918403151659e+00 1.270514846721255964e+01
9.143485690529637111e+00 1.380830623527904244e+01
9.138866202966381636e+00 1.494380102665195764e+01
9.138512979208050169e+00 1.610217958361284118e+01
9.142725988974856222e+00 1.727370101328653718e+01
9.151605822575534788e+00 1.844858156493094725e+01
9.165049570148079638e+00 1.961723881393113089e+01
9.182755573873995658e+00 2.077052704915626435e+01
9.204236834418662028e+00 2.189995599863907216e+01
9.228842476047857346e+00 2.299788566117260658e+01
9.255786324511692698e+00 2.405769091291797679e+01
9.284181343104350503e+00 2.507389069241092372e+01
9.313078418694427540e+00 2.604223788930902828e+01
9.341507801955794221e+00 2.695976751947297601e+01
9.368521392597505937e+00 2.782480230413769462e+01
9.393234025938580700e+00 2.863691632390265340e+01
9.414861963099072639e+00 2.939685892872186201e+01
9.432756911273697753e+00 3.010644249485940804e+01
9.446434097507557581e+00 3.076839887527773953e+01
9.455593180428158107e+00 3.138621044418319528e+01
9.460131098044623599e+00 3.196392245099042739e+01
9.460146302273075847e+00 3.250594394527175268e+01
9.455934206870692194e+00 3.301684479482505452e+01
9.447974058548261667e+00 3.350115628791705547e+01
9.436907814481106271e+00 3.396318249382549226e+01
9.423511956990111571e+00 3.440682897013246588e+01
9.408663482710808879e+00 3.483545457840995141e+01
9.393301555804288938e+00 3.525175113881331157e+01
9.378386501768972039e+00 3.565765446309510622e+01
9.364857932123737072e+00 3.605428900478620591e+01
9.353593825791957528e+00 3.644194700845550017e+01
9.345372348970256482e+00 3.682010168206085154e+01
9.340838073643077166e+00 3.718745261151151738e+01
9.340474061097809866e+00 3.754200043560615541e+01
9.344581019347449669e+00 3.788114674825029482e+01
9.353264433574212333e+00 3.820181433209768329e+01
9.366430220137271334e+00 3.850058218386962494e+01
9.383789082574979901e+00 3.877382938742977814e+01
9.404869368623501202e+00 3.901788173685223882e+01
9.429037857108147236e+00 3.922915510837862030e+01
9.455527558760058682e+00 3.940428991719645069e+01
9.483471310558041267e+00 3.954027155261109527e+01
9.511939692309733019e+00 3.963453243499579060e+01
9.539981607728652335e+00 3.968503224415672292e+01
9.566665758279008003e+00 3.969031389005058230e+01
9.591121201417509567e+00 3.964953388791655442e+01
9.612575227065690342e+00 3.956246691375566371e+01
9.630386905250814422e+00 3.942948540578921524e+01
9.644074848576307701e+00 3.925151609824647636e+01
9.653337987118820962e+00 3.902997628472424907e+01
9.658068459356080382e+00 3.876669337417341410e+01
9.658356067406250745e+00 3.846381189499675202e+01
9.654484113139274015e+00 3.812369250149742328e+01
9.646916807526066506e+00 3.774880773037260440e+01
9.636278812539568861e+00 3.734163924047463468e+01
9.623327817032999221e+00 3.690458105290874613e+01
9.608921350421693930e+00 3.643985290537904120e+01
9.593979287559074365e+00 3.594942726680200451e+01
9.579443684115997115e+00 3.543497285432191291e+01
9.566237696027798165e+00 3.489781668881636989e+01
9.555225374274046501e+00 3.433892585411113885e+01
9.547174085858291193e+00 3.375890922860215682e+01
9.542721195215706942e+00 3.315803857506116969e+01
9.542346452575671378e+00 3.253628754273078982e+01
9.546351285309706114e+00 3.189338638983818086e+01
9.554845885998343391e+00 3.122888960420768001e+01
9.567744650089096581e+00 3.054225310875513344e+01
9.584770151493207990e+00 2.983291740462739128e+01
9.605465472193648324e+00 2.910039283763148532e+01
9.629214338141990126e+00 2.834434317585816032e+01
9.655268174248339719e+00 2.756466385304666744e+01
9.682778890877500544e+00 2.676155155120793694e+01
9.710835965996716723e+00 2.593556224891777973e+01
9.738506201727872735e+00 2.508765542473805255e+01
9.764874419539944839e+00 2.421922275046782147e+01
9.789083319576812769e+00 2.333210030559407144e+01
9.810370768246688300e+00 2.242856406024211680e+01
9.828102892419517289e+00 2.151130907705737627e+01
9.841801543321833989e+00 2.058341354224805997e+01
9.851164940341416099e+00 1.964828932481091428e+01
9.856080603617812130e+00 1.870962125710763857e+01
9.856630021414824583e+00 1.777129771081879284e+01
9.853084859117574368e+00 1.683733529693087405e+01
9.845894885510455552e+00 1.591180064002020877e+01
9.835668152698225697e+00 1.499873216516373375e+01
9.823144302919445181e+00 1.410206469595819101e+01
9.809162173922963746e+00 1.322555940569018418e+01
9.794623121575616764e+00 1.237274130701986508e+01
9.780451663245056437e+00 1.154684602909707536e+01
9.767555160276838677e+00 1.075077713834627424e+01
9.756784297643003256e+00 9.987074735620113941e+00
9.748896081942046266e+00 9.257895534033696805e+00
9.744520967078035056e+00 8.565004113902697114e+00
9.744135535106604351e+00 7.909774587340331564e+00
9.748041915915230504e+00 7.293201505814497665e+00
9.756354834306925738e+00 6.715918526093645369e+00
9.768996839599548565e+00 6.178223125711104657e+00
9.785701915615213409e+00 5.680105535522964821e+00
9.806027303511406501e+00 5.221280036008328906e+00
9.829373012228550976e+00 4.801216842318058120e+00
9.855008156976534650e+00 4.419172972406118838e+00
9.882102969692413197e+00 4.074220740138425612e+00
9.909765079649282882e+00 3.765272824622858838e+00
9.937078478026380779e+00 3.491103218896038030e+00
9.963143465223829764e+00 3.250363734527166759e+00
9.987115838947792312e+00 3.041596111974319339e+00
1.000824361629159043e+01 2.863240138434830051e+00
1.002589969256661817e+01 2.713638485786143750e+00
1.003960901863360888e+01 2.591039233884536497e+00
1.004906911906435418e+01 2.493597225250727689e+00
1.005416306506937296e+01 2.419375496382652369e+00
1.005496434599041677e+01 2.366348043531948608e+00
1.005173343685776111e+01 2.332405106497696057e+00
1.004490622160995450e+01 2.315361997362605173e+00
1.003507478628090155e+01 2.312972271226606757e+00
1.002296142832577885e+01 2.322945746041391146e+00
1.000938702285511184e+01 2.342971545184919790e+00
9.995235131076915636e+00 2.370745978524448017e+00
9.981413420120215818e+00 2.404004716030806676e+00
9.968814078688863489e+00 2.440558363622590043e+00
9.958274954729201767e+00 2.478330244288941220e+00
9.950543107763056838e+00 2.515394937402012143e+00
9.946242361285431599e+00 2.550015951499117861e+00
9.945846264419618166e+00 2.580680813108303440e+00
9.949657634619677893e+00 2.606131854529702085e+00
9.957795565030554741e+00 2.625391080195812243e+00
9.970190453776396566e+00 2.637777682592643114e+00
9.986587262214557725e+00 2.642917057936349234e+00
1.000655685035632914e+01 2.640740527262707360e+00
1.002951488586002604e+01 2.631475384349240887e+00
1.005474749357218833e+01 2.615625348387672577e+00
1.008144251985256723e+01 2.593941974271244622e+00
1.010872504258395743e+01 2.567388042804739978e+00
1.013569557438169255e+01 2.537094392631183304e+00
1.016146929099929608e+01 2.504312041441071113e+00
1.018521457423104515e+01 2.470361754235459451e+00
1.020618919051165108e+01 2.436583432231147928e+00
1.022377253142998121e+01 2.404287802648302108e+00
1.023749251584588471e+01 2.374712877218732920e+00
1.024704598758477658e+01 2.348987511411805951e+00
1.025231172750572561e+01 2.328104138603381834e+00
1.025335552162061070e+01 2.312902381202809998e+00
1.025042707377497742e+01 2.304064767415793913e+00
1.024394890703856298e+01 2.302125226523003665e+00
1.023449774689226643e+01 2.307490420600402548e+00
1.022277920633915649e+01 2.320473323479219196e+00
1.020959688398466625e+01 2.341337807955468531e+00
1.019581722829277304e+01 2.370352380541521420e+00
1.018233170413368072e+01 2.407850639974799201e+00
1.017001791349531281e+01 2.454295560232901963e+00
1.015970136586916084e+01 2.510344336944711596e+00
1.015211956352428579e+01 2.576910309557518541e+00
1.014788996405830446e+01 2.655218396743287634e+00
1.014748321182580071e+01 2.746850569314072565e+00
1.015120279861609731e+01 2.853778136400179744e+00
1.015917203242753075e+01 2.978378032534330533e+00
1.017132887369344907e+01 3.123430853914145100e+00
1.018742885482028271e+01 3.292099082730068460e+00
1.020705594639699498e+01 3.487884733826276840e+00
1.022964088729937693e+01 3.714566527313130084e+00
1.025448617121608486e+01 3.976117598910355433e+00
1.028079659299270254e+01 4.276605668626529244e+00
1.030771401717916191e+01 4.620078458339166083e+00
1.033435484872585874e+01 5.010437940674325574e+00
1.035984856978214275e+01 5.451307678030555159e+00
1.038337566198767092e+01 5.945898038044616918e+00
1.040420326237204840e+01 6.496874421865695304e+00
1.042171700165089199e+01 7.106233792485185496e+00
1.043544764186231966e+01 7.775194727966097119e+00
1.044509135851735948e+01 8.504105943171182957e+00
1.045052279072652546e+01 9.292377726956663864e+00
1.045180029893172069e+01 1.013844004237002316e+01
1.044916321009211124e+01 1.103973015661404666e+01
1.044302117959527365e+01 1.199271163507846794e+01
1.043393614255183799e+01 1.299292538646552053e+01
1.042259764952715173e+01 1.403507222668757670e+01
1.040979266914248313e+01 1.511312518480129619e+01
1.039637117985818904e+01 1.622046855421340439e+01
1.038320905523382365e+01 1.735005954667366979e+01
1.037116986318173062e+01 1.849460738353687717e+01
1.036106724520083588e+01 1.964676380323594174e+01
1.035362951439803858e+01 2.079931831520721630e+01
1.034946801254114845e+01 2.194539112078115295e+01
1.034905060081653971e+01 2.307861647427459317e+01
1.035268143367983562e+01 2.419330938634375983e+01
1.036048789007199922e+01 2.528460897963954679e+01
1.037241522337249577e+01 2.634859248604664117e+01
1.038822915445445894e+01 2.738235480649035125e+01
1.040752628580514738e+01 2.838404970928381488e+01
1.042975187398709380e+01 2.935289008262748922e+01
1.045422417757642108e+01 3.028910613439911614e+01
1.048016431205648935e+01 3.119386199456244313e+01
1.050673030437307887e+01 3.206913276464989337e+01
1.053305385832454633e+01 3.291754561477518592e+01
1.055827822551322370e+01 3.374218999140616404e+01
1.058159553022046140e+01 3.454640331086698524e+01
1.060228192223435961e+01 3.533353962101595869e+01
1.061972902814800790e+01 3.610672957024162599e+01
1.063347033468060765e+01 3.686864059094675383e+01
1.064320135996914374e+01 3.762124645637586440e+01
1.064879274077786597e+01 3.836561528876617899e+01
1.065029567326909543e+01 3.910172467939220553e+01
1.064793947883126179e+01 3.982831183574084832e+01
1.064212140989588207e+01 4.054276561885151153e+01
1.063338914871609475e+01 4.124106600765384201e+01
1.062241677000071860e+01 4.191777497054201973e+01
1.060997522226965195e+01 4.256608099027177161e+01
1.059689862048036346e+01 4.317789763674731063e+01
1.058404782356657137e+01 4.374401467875013338e+01
1.057227288720114622e+01 4.425429833832030369e+01
1.056237602933298092e+01 4.469793548876982214e+01
1.055507672187197876e+01 4.506371494536352884e+01
1.055098042743944653e+01 4.534033755795489640e+01
1.055055233955970451e+01 4.551674564165300296e+01
1.055409726511014057e+01 4.558246142011459057e+01
1.056174651890590610e+01 4.552792364060266550e+01
1.057345239374647683e+01 4.534481137260684847e+01
1.058899043849487143e+01 4.502634423153358512e+01
1.060796943623607369e+01 4.456754887117245545e+01
1.062984863912028288e+01 4.396548254533189493e+01
1.065396150074976767e+01 4.321940581937892034e+01
1.067954486465348829e+01 4.233089807383370839e+01
1.070577233077708001e+01 4.130391123183797930e+01
1.073179034125667641e+01 4.014475909907456952e+01
1.075675540985470136e+01 3.886204176127277066e+01
1.077987087133850963e+01 3.746650656979727501e+01
1.080042154979564550e+01 3.597084928787811720e+01
1.081780483733827936e+01 3.438946089816845131e+01
1.083155683274450709e+01 3.273812731993365333e+01
1.084137240635667965e+01 3.103369079114450457e+01
1.084711832349378824e+01 2.929368288552735677e+01
1.084883886209414250e+01 2.753594001612010800e+01
1.084675368802083639e+01 2.577821279587631054e+01
1.084124808912759796e+01 2.403778076602348435e+01
1.083285600207133470e+01 2.233108376130248374e+01
1.082223657946888729e+01 2.067338056843141914e+01
1.081014532568341835e+01 1.907844457367261981e+01
1.079740106509543374e+01 1.755830482282393135e+01
1.078485018694774666e+01 1.612303937858285607e+01
1.077332972796021338e+01 1.478062611127183601e+01
1.076363090285322244e+01 1.353685416148185894e+01
1.075646467164109765e+01 1.239529733400351574e+01
1.075243084206228517e+01 1.135734869034160965e+01
1.075199204981955781e+01 1.042231367069149961e+01
1.075545374526880238e+01 9.587557261232973360e+00
1.076295105220748916e+01 8.848699089606579804e+00
1.077444306399013207e+01 8.199848933864199552e+00
1.078971481746694927e+01 7.633874012374664453e+00
1.080838685038533775e+01 7.142688617918456551e+00
1.082993191751048734e+01 6.717556190734780941e+00
1.085369812920852972e+01 6.349393802566886791e+00
1.087893749714364411e+01 6.029069244361377145e+00
1.090483863719995128e+01 5.747681459663700032e+00
1.093056219992007883e+01 5.496815917954267938e+00
1.095527748143383207e+01 5.268767640950168918e+00
1.097819861807557729e+01 5.056725935212247336e+00
1.099861878775559809e+01 4.854916394190197160e+00
1.101594092971650696e+01 4.658697355040358090e+00
1.102970364763853439e+01 4.464609670232643879e+00
1.103960117240404415e+01 4.270380320581252498e+00
1.104549652092018519e+01 4.074881995904715559e+00
1.104742728484254499e+01 3.878052246761802380e+00
1.104560380483935944e+01 3.680777115957770906e+00
1.104039981813646421e+01 3.484745249417165791e+00
1.103233599500249618e+01 3.292279328935580285e+00
1.102205708928938144e+01 3.106152240357550998e+00
1.101030370566508232e+01 2.929395676402086757e+00
1.099787991970812584e+01 2.765108870872198921e+00
1.098561816644309808e+01 2.616274878092903489e+00
1.097434293042557307e+01 2.485591265910039205e+00
1.096483482107601226e+01 2.375321309390481694e+00
1.095779659848308007e+01 2.287170790401892972e+00
1.095382262822597319e+01 2.222194366919432618e+00
1.095337309275262250e+01 2.180734221442252263e+00
1.095675407814549196e+01 2.162392379552777744e+00
1.096410439786561675e+01 2.166036757794364664e+00
1.097538972055053641e+01 2.189839704308317092e+00
1.099040425002585764e+01 2.231346583117713500e+00
1.100877987630027910e+01 2.287570866394044167e+00
1.103000239081069012e+01 2.355111275585918484e+00
1.105343405175397109e+01 2.430285782060984445e+00
1.107834150935794959e+01 2.509276763138696964e+00
1.110392786840475310e+01 2.588281323750544427e+00
1.112936748630848527e+01 2.663660742294748474e+00
1.115384198731445586e+01 2.732083177570072685e+00
1.117657592199171646e+01 2.790654169550867092e+00
1.119687051830659108e+01 2.837030059966680451e+00
1.121413405537279750e+01 2.869510222099118657e+00
1.122790753970641653e+01 2.887104890132084378e+00
1.123788456992339135e+01 2.889576379676749518e+00
1.124392453026020533e+01 2.877452552782466366e+00
1.124605854493522550e+01 2.852012461558349532e+00
1.124448794145263086e+01 2.815245163456740141e+00
1.123957529767923802e+01 2.769783699060708759e+00
1.123182847065158185e+01 2.718817123808851655e+00
1.122187831051287077e+01 2.665984256870952862e+00
1.121045103745125537e+01 2.615253427256403196e+00
1.119833649107621198e+01 2.570792939446355785e+00
1.118635364028918211e+01 2.536837235591465234e+00
1.117531485964311777e+01 2.517553793059001954e+00
1.116599053037104206e+01 2.516915666592518530e+00
1.115907550848952567e+01 2.538584272390189245e+00
1.115515891940560600e+01 2.585806532409618885e+00
1.115469859196433156e+01 2.661329872450564515e+00
1.115800124131618709e+01 2.767337823288716692e+00
1.116520925829163957e+01 2.905408140455756349e+00
1.117629467416014322e+01 3.076494468007781258e+00
1.119106055635105079e+01 3.280931659048446303e+00
1.120914976659932627e+01 3.518463965280835826e+00
1.123006069218867786e+01 3.788294452735538886e+00
1.125316925747327979e+01 4.089153222047571923e+00
1.127775624987568293e+01 4.419381336809011351e+00
1.130303876394675378e+01 4.777026815863162135e+00
1.132820438884134440e+01 5.159948643092103993e+00
1.135244664642199730e+01 5.565924503783799437e+00
1.137500013423994183e+01 5.992757876565073971e+00
1.139517384209952411e+01 6.438380194534405909e+00
1.141238119208709989e+01 6.900944033001255917e+00
1.142616549623455136e+01 7.378903672797537894e+00
1.143621972703691547e+01 7.871079910946428448e+00
1.144239974503198809e+01 8.376706623523446638e+00
1.144473041367879595e+01 8.895457304119346986e+00
1.144340434233783377e+01 9.427450577989832325e+00
1.143877331969845024e+01 9.973234497638491902e+00
1.143133281849462968e+01 1.053375023048085168e+01
1.142170025392347732e+01 1.111027652408686350e+01
1.141058794970341062e+01 1.170435705148309857e+01
1.139877199538207364e+01 1.231771337275911549e+01
1.138705835635878927e+01 1.295214677771264000e+01
1.137624771642694732e+01 1.360943267949444646e+01
1.136710058636871423e+01 1.429121149780764988e+01
1.136030419897672239e+01 1.499888009384070031e+01
1.135644263147152877e+01 1.573348779471410452e+01
1.135597145416214460e+01 1.649564087502693255e+01
1.135919800561390502e+01 1.728541905451152871e+01
1.136626814825786269e+01 1.810230713608085651e+01
1.137716007507940219e+01 1.894514436427997239e+01
1.139168543014792156e+01 1.981209345065637351e+01
1.140949768673346654e+01 2.070063051313884372e+01
1.143010741051524448e+01 2.160755643658878355e+01
1.145290373570187015e+01 2.252902940791235409e+01
1.147718111179292499e+01 2.346061763842111958e+01
1.150217014996250064e+01 2.439737058477099296e+01
1.152707122055995193e+01 2.533390634247989581e+01
1.155108933468656396e+01 2.626451233499308913e+01
1.157346878832589177e+01 2.718325597560928486e+01
1.159352605938791569e+01 2.808410165455239138e+01
1.161067952569042738e+01 2.896103020998261002e+01
1.162447471189177151e+01 2.980815698599896635e+01
1.163460396954666898e+01 3.061984466400528859e+01
1.164091973817346570e+01 3.139080727259264236e+01
1.164344081582830448e+01 3.211620212693882337e+01
1.164235137291605682e+01 3.279170690878277128e+01
1.163799275949737932e+01 3.341357965541399722e+01
1.163084847037504765e+01 3.397870006052391290e+01
1.162152293007525117e+01 3.448459117818450181e+01
1.161071502851769566e+01 3.492942133873525279e+01
1.159918756601262935e+01 3.531198680602798134e+01
1.158773394334504481e+01 3.563167640323253949e+01
1.157714355143619223e+01 3.588841998397237631e+01
1.156816737029593334e+01 3.608262320335575879e+01
1.156148527635271783e+01 3.621509152842510559e+01
1.155767648129850755e+01 3.628694680187879840e+01
1.155719438769083141e+01 3.629953992275275709e+01
1.156034695278308000e+01 3.625436332363524627e+01
1.156728341090862955e+01 3.615296690127235735e+01
1.157798792677854927e+01 3.599688089642091171e+01
1.159228044942105385e+01 3.578754892484975159e+01
1.160982472240201879e+01 3.552627394465098121e+01
1.163014309412370828e+01 3.521417942020323011e+01
1.165263747598833177e+01 3.485218732896515093e+01
1.167661552892147370e+01 3.444101397591702352e+01
1.170132093179514321e+01 3.398118385669037878e+01
1.172596640852563254e+01 3.347306107080152771e+01
1.174976807169887749e+01 3.291689705833817925e+01
1.177197958462169858e+01 3.231289274421403235e+01
1.179192465308958049e+01 3.166127254985550010e+01
1.180902643242265881e+01 3.096236719699468409e+01
1.182283257115638619e+01 3.021670180320989019e+01
1.183303480419591658e+01 2.942508547130691099e+01
1.183948224686121087e+01 2.858869841743364049e+01
1.184218781661435571e+01 2.770917267386136373e+01
1.184132750933665079e+01 2.678866254418989357e+01
1.183723256870769625e+01 2.582990127839085304e+01
1.183037489693807842e+01 2.483624086415735732e+01
1.182134634932467954e+01 2.381167238580128043e+01
1.181083282102830800e+01 2.276082506392178928e+01
1.179958426055187104e+01 2.168894283553633073e+01
1.178838192081474467e+01 2.060183813913170781e+01
1.177800427782957193e+01 1.950582340343595433e+01
1.176919310366230675e+01 1.840762157236969543e+01
1.176262117218123393e+01 1.731425780090909683e+01
1.175886300349796443e+01 1.623293519745774205e+01
1.175836991919939400e+01 1.517089813955570321e+01
1.176145049135577203e+01 1.413528722598365839e+01
1.176825723215940833e+01 1.313299032802766142e+01
1.177878009824285677e+01 1.217049444903108224e+01
1.179284708616390809e+01 1.125374318294041842e+01
1.181013188622336685e+01 1.038800447381765046e+01
1.183016825419158380e+01 9.577753119902224554e+00
1.185237046806317096e+01 8.826572044682361451e+00
1.187605897236980113e+01 8.137075786601029037e+00
1.190049008735983449e+01 7.510858957210865938e+00
1.192488848428120463e+01 6.948471608628239871e+00
1.194848100870315299e+01 6.449422563133710540e+00
1.197053037643106066e+01 6.012210822128137622e+00
1.199036727354410381e+01 5.634384221961097339e+00
1.200741946305548247e+01 5.312623574920375624e+00
1.202123663250097962e+01 5.042849659099711168e+00
1.203150990360403760e+01 4.820349633511864518e+00
1.203808515884668751e+01 4.639918784387143447e+00
1.204096961006601063e+01 4.496012980774946044e+00
1.204033132928200445e+01 4.382906852984132406e+00
1.203649176895940798e+01 4.294852520813934760e+00
1.202991160442202023e+01 4.226233698175182241e+00
1.202117052186132362e+01 4.171710187912740508e+00
1.201094183865412468e+01 4.126348149694623935e+00
1.199996306707958738e+01 4.085732062106974816e+00
1.198900370826370043e+01 4.046054988441043498e+00
1.197883168266402798e+01 4.004184569083624190e+00
1.197017986148953561e+01 3.957703071949369988e+00
1.196371415765273660e+01 3.904920802174576266e+00
1.196000456549157320e+01 3.844863166845763569e+00
1.195950040865665542e+01 3.777232672134879454e+00
1.196251087095527410e+01 3.702348061306952154e+00
1.196919165367044080e+01 3.621063646748265086e+00
1.197953833506018206e+01 3.534672614559501547e+00
1.199338671509041454e+01 3.444798657846360967e+00
1.201042012374594847e+01 3.353280701589673729e+00
1.203018336778831454e+01 3.262055701309450662e+00
1.205210270181041565e+01 3.173044520237302102e+00
1.207551094746064813e+01 3.088045713566591743e+00
1.209967666116292939e+01 3.008641679502746413e+00
1.212383607525182860e+01 2.936121088834090287e+00
1.214722641777259682e+01 2.871420798284957332e+00
1.216911915742550576e+01 2.815089615110847987e+00
1.218885172476953116e+01 2.767275343782928942e+00
1.220585632857617497e+01 2.727735546910740716e+00
1.221968461413058904e+01 2.695871431291700482e+00
1.223002709268048349e+01 2.670783266933816957e+00
1.223672650013308960e+01 2.651344802535049894e+00
1.223978450847875266e+01 2.636293293736512222e+00
1.223936150367328857e+01 2.624331045547095620e+00
1.223576944617031792e+01 2.614233817809859861e+00
1.222945813176277419e+01 2.604961076445869494e+00
1.222099545773439289e+01 2.595762910303637927e+00
1.221104256002620581e+01 2.586278482685870905e+00
1.220032490985260942e+01 2.576621148590911847e+00
1.218960063328557908e+01 2.567445835495212769e+00
1.217962743717835927e+01 2.559994940969424260e+00
1.217112958424722358e+01 2.556119820711164614e+00
1.216476635664137618e+01 2.558275894999877842e+00
1.216110338111317368e+01 2.569490453731286816e+00
1.216058806290151395e+01 2.593303349347580777e+00
1.216353019520494172e+01 2.633681889653339603e+00
1.217008858455584352e+01 2.694912334135613374e+00
1.218026426942828166e+01 2.781471414107864248e+00
1.219390062151592780e+01 2.897882197306531626e+00
1.221069031887404321e+01 3.048559364110815295e+00
1.223018888062570575e+01 3.237649523555098607e+00
1.225183416724106955e+01 3.468872547904752857e+00
1.227497099094762412e+01 3.745370027882076069e+00
1.229887975890109786e+01 4.069566838492346683e+00
1.232280789697991707e+01 4.443051458765459039e+00
1.234600268203375784e+01 4.866480117736067257e+00
1.236774405029829360e+01 5.339509062644043347e+00
1.238737595205021513e+01 5.860758290863360642e+00
1.240433488725734712e+01 6.427808988901661635e+00
1.241817438110149396e+01 7.037235720324852117e+00
1.242858433635305460e+01 7.684673144428913361e+00
1.243540442384377798e+01 8.364915776376991019e+00
1.243863093290061350e+01 9.072048065676568740e+00
1.243841678917787874e+01 9.799600920602866694e+00
1.243506474538792439e+01 1.054072978592874321e+01
1.242901404797900433e+01 1.128840852992734867e+01
1.242082116687821447e+01 1.203563274770041325e+01
1.241113543363497307e+01 1.277562566754683893e+01
1.240067065444081429e+01 1.350203967281505335e+01
1.239017393895652219e+01 1.420914653165961994e+01
1.238039310608957244e+01 1.489200975984987707e+01
1.237204408864345595e+01 1.554663311610373633e+01
1.236577975750956426e+01 1.617008002493702179e+01
1.236216152290623427e+01 1.676055970982508470e+01
1.236163494789427908e+01 1.731747696328451269e+01
1.236451043339990186e+01 1.784144373800723926e+01
1.237094981197125243e+01 1.833425206776534822e+01
1.238095942920424619e+01 1.879880916924266643e+01
1.239439000848441630e+01 1.923903688636870157e+01
1.241094329877491198e+01 1.965973886855585206e+01
1.243018520954603190e+01 2.006643997804874857e+01
1.245156485446977435e+01 2.046520335890033238e+01
1.247443866849788030e+01 2.086243133688023477e+01
1.249809854257650699e+01 2.126465682968655457e+01
1.252180274610099353e+01 2.167833221273397015e+01
1.254480828682375204e+01 2.210962259952462006e+01
1.256640329649966326e+01 2.256421025885756393e+01
1.258593803070702855e+01 2.304711641515875442e+01
1.260285313295796961e+01 2.356254598335911865e+01
1.261670393366545895e+01 2.411375990457214513e+01
1.262717972846328252e+01 2.470297870893163505e+01
1.263411720014893902e+01 2.533131977853226502e+01
1.263750740452210053e+01 2.599876956158265884e+01
1.263749602142809714e+01 2.670419074583342223e+01
1.263437686612017252e+01 2.744536318250618123e+01
1.262857894980482243e+01 2.821905620706186824e+01
1.262064765913480713e+01 2.902112897247541667e+01
1.261122088022574950e+01 2.984665453136917534e+01
1.260100111237600551e+01 3.069006270598122299e+01
1.259072479051951277e+01 3.154529629239124233e+01
1.258113015600853046e+01 3.240597487204318128e+01
1.257292507739355436e+01 3.326556045474710288e+01
1.256675622379551704e+01 3.411751934926846985e+01
1.256318093325820939e+01 3.495547503776149512e+01
1.256264299981013721e+01 3.577334739794481067e+01
1.256545343107636903e+01 3.656547434410611430e+01
1.257177701070163600e+01 3.732671281087667836e+01
1.258162524609973332e+01 3.805251694390548067e+01
1.259485600322298104e+01 3.873899234796270008e+01
1.261117983832269829e+01 3.938292623348622357e+01
1.263017274477484619e+01 3.998179425577950497e+01
1.265129475369269585e+01 4.053374571812500449e+01
1.267391357241077721e+01 4.103756957625058277e+01
1.269733222607032097e+01 4.149264430768663203e+01
1.272081949397897205e+01 4.189887517308918063e+01
1.274364181167692678e+01 4.225662268267494426e+01
1.276509524693527631e+01 4.256662618271477072e+01
1.278453615592106551e+01 4.282992639606746366e+01
1.280140918452103449e+01 4.304779049659529733e+01
1.281527139670652282e+01 4.322164288716310665e+01
1.282581148170209673e+01 4.335300430866233512e+01
1.283286320713550133e+01 4.344344126256086014e+01
1.283641253687201988e+01 4.349452701547087230e+01
1.283659810887448671e+01 4.350781470738967727e+01
1.283370505810343865e+01 4.348482234277545189e+01
1.282815245954430594e+01 4.342702874191847684e+01
1.282047494427490264e+01 4.333587890318647595e+01
1.281129929497161690e+01 4.321279670476264556e+01
1.280131704536755244e+01 4.305920248225098845e+01
1.279125428144668675e+01 4.287653277438160160e+01
1.278183996307233450e+01 4.266625944415623195e+01
1.277377414807992473e+01 4.242990546054743817e+01
1.276769750390652192e+01 4.216905486183258489e+01
1.276416343449989199e+01 4.188535480367247743e+01
1.276361403510140491e+01 4.158050810387483409e+01
1.276636091959880304e+01 4.125625530592870405e+01
1.277257175185894411e+01 4.091434596428732817e+01
1.278226306311547766e+01 4.055649957178277276e+01
1.279529966299755905e+01 4.018435726712276335e+01
1.281140066413040834e+01 3.979942614138195012e+01
1.283015185196509655e+01 3.940301857124525498e+01
1.285102385516732681e+01 3.899618951091412811e+01
1.287339531954779304e+01 3.857967504593948860e+01
1.289658007112588933e+01 3.815383572848923421e+01
1.291985708093023355e+01 3.771860825931240413e+01
1.294250192305279867e+01 3.727346894924088616e+01
1.296381835352403655e+01 3.681741208296109136e+01
1.298316863349679906e+01 3.634894582875602964e+01
1.300000127615001055e+01 3.586610770671774162e+01
1.301387501015220849e+01 3.536650086870110954e+01
1.302447791847355951e+01 3.484735158657963439e+01
1.303164092251850370e+01 3.430558742688180018e+01
1.303534502873258205e+01 3.373793464898926686e+01
1.303572202720535245e+01 3.314103244210948418e+01
1.303304861746019583e+01 3.251156075471321572e+01
1.302773422312354334e+01 3.184637770894211073e+01
1.302030303201739514e+01 3.114266196812299725e+01
1.301137104944676182e+01 3.039805496939248641e+01
1.300161916913162408e+01 2.961079767044900635e+01
1.299176343894509777e+01 2.877985640681541923e+01
1.298252381987663284e+01 2.790503262234505044e+01
1.297459280119974778e+01 2.698705162056916507e+01
1.296860523992420333e+01 2.602762607816807972e+01
1.296511073807944747e+01 2.502949084567326921e+01
1.296454975963876066e+01 2.399640650746334458e+01
1.296723452487001005e+01 2.293313024886018425e+01
1.297333551078403424e+01 2.184535374230563676e+01
1.298287414129605821e+01 2.073960897244457158e+01
1.299572198043346738e+01 1.962314412407465980e+01
1.301160645821318340e+01 1.850377280928601209e+01
1.303012287405421077e+01 1.738970096394422171e+01
1.305075214919394000e+01 1.628933665544283471e+01
1.307288354945064945e+01 1.521108877493364808e+01
1.309584138369754847e+01 1.416316110630517500e+01
1.311891451097299921e+01 1.315334854740157056e+01
1.314138736772513383e+01 1.218884229187984225e+01
1.316257116152373108e+01 1.127605055805489442e+01
1.318183387146528318e+01 1.042044097956838833e+01
1.319862774865976895e+01 9.626410067222813893e+00
1.321251312025584923e+01 8.897184236775611765e+00
1.322317746258810800e+01 8.234755807354760648e+00
1.323044891610484264e+01 7.639856150115955202e+00
1.323430365769674566e+01 7.111966853142091871e+00
1.323486681427219125e+01 6.649368416513562252e+00
1.323240688320471037e+01 6.249224652887366283e+00
1.322732390831932037e+01 5.907699695468091150e+00
1.322013193204711534e+01 5.620103356233062009e+00
1.321143649342137927e+01 5.381059577636190916e+00
1.320190815687370822e+01 5.184691919535599602e+00
1.319225322896507002e+01 5.024819450802740839e+00
1.318318294178162908e+01 4.895156093996158475e+00
1.317538244748568310e+01 4.789506413735568735e+00
1.316948097561466469e+01 4.701951046700495240e+00
1.316602445290893009e+01 4.627015434732178356e+00
1.316545177702782254e+01 4.559816223443248440e+00
1.316807577525578843e+01 4.496180598780483706e+00
1.317406967423661257e+01 4.432734916674096581e+00
1.318345966587635409e+01 4.366960193040586802e+00
1.319612388835677308e+01 4.297213314803886242e+00
1.321179786132205436e+01 4.222714156055395129e+00
1.323008613295407265e+01 4.143500084826119867e+00
1.325047962609842145e+01 4.060350574192524320e+00
1.327237792262857496e+01 3.974685738783534372e+00
1.329511551062703489e+01 3.888443561534839166e+00
1.331799084704833724e+01 3.803941319908078711e+00
1.334029696676434185e+01 3.723727238159901809e+00
1.336135230254479289e+01 3.650428664331839101e+00
1.338053037243972909e+01 3.586603089153093560e+00
1.339728704151135830e+01 3.534598091003585907e+00
1.341118417165955279e+01 3.496425818584018685e+00
1.342190863169956927e+01 3.473656932661691954e+00
1.342928584293131955e+01 3.467338050471944655e+00
1.343328727430249359e+01 3.477935708632537093e+00
1.343403156546910893e+01 3.505308726037160927e+00
1.343177923406173946e+01 3.548709654296660521e+00
1.342692120314643134e+01 3.606814798956331725e+00
1.341996165403162067e+01 3.677781128893456319e+00
1.341149595649728177e+01 3.759327310816092726e+00
1.340218464246191488e+01 3.848835153437994538e+00
1.339272456076299456e+01 3.943466958735792449e+00
1.338381847265720559e+01 4.040293685514660282e+00
1.337614441457586878e+01 4.136428454758323880e+00
1.337032616372693639e+01 4.229159779173243372e+00
1.336690609296901755e+01 4.316078983642342770e+00
1.336632159618722682e+01 4.395196592077160958e+00
1.336888610880608219e+01 4.465042973324817588e+00
1.337477554694695669e+01 4.524749239870659245e+00
1.338402075188232843e+01 4.574105246330105068e+00
1.339650626420620938e+01 4.613592502546758567e+00
1.341197547598175177e+01 4.644390856704284865e+00
1.343004193109086764e+01 4.668358873026022593e+00
1.345020627621607368e+01 4.687988881683587294e+00
1.347187811899609500e+01 4.706338672159268377e+00
1.349440183661346282e+01 4.726942695399245942e+00
1.351708520666254110e+01 4.753706399395378313e+00
1.353922961005075365e+01 4.790787918358538455e+00
1.356016048818024089e+01 4.842471745819980633e+00
1.357925672664525862e+01 4.913039233466999889e+00
1.359597768554878172e+01 5.006640765594590370e+00
1.360988670015630042e+01 5.127174267778953798e+00
1.362067003040785451e+01 5.278174330214600474e+00
1.362815043700670969e+01 5.462715681320917227e+00
1.363229479668275523e+01 5.683334062683401910e+00
1.363321542951851306e+01 5.941966764600839390e+00
1.363116508556435313e+01 6.239914218888020336e+00
1.362652581438648269e+01 6.577823150889995141e+00
1.361979220763631204e+01 6.955690905255066170e+00
1.361154974959955233e+01 7.372889718099821188e+00
1.360244922332097595e+01 7.828208947203349588e+00
1.359317829106355369e+01 8.319912622886448617e+00
1.358443149012406792e+01 8.845809170752277240e+00
1.357687995309882645e+01 9.403329802312965668e+00
1.357114217265153755e+01 9.989611882142042987e+00
1.356775708424761362e+01 1.060158356424462589e+01
1.356716063826314134e+01 1.123604614167786941e+01
1.356966687984420616e+01 1.188975086044597518e+01
1.357545435759459629e+01 1.255946739284464897e+01
1.358455844924242051e+01 1.324204172235381627e+01
1.359686993405948030e+01 1.393444183278996285e+01
1.361213986926313702e+01 1.463379028636221335e+01
1.362999055281045102e+01 1.533738348440402888e+01
1.364993208987688611e+01 1.604269809660389612e+01
1.367138383644769206e+01 1.674738578670024580e+01
1.369369978144724698e+01 1.744925792495713068e+01
1.371619675790967463e+01 1.814626243472052280e+01
1.373818425126608389e+01 1.883645525185017178e+01
1.375899450419067627e+01 1.951796906804424481e+01
1.377801160555555349e+01 2.018898207515539411e+01
1.379469829636811262e+01 2.084768932784893636e+01
1.380861932608228848e+01 2.149227910377448936e+01
1.381946034396214529e+01 2.212091627789351733e+01
1.382704150559828271e+01 2.273173426076388992e+01
1.383132520568086576e+01 2.332283650442081324e+01
1.383241760462336778e+01 2.389230798273377943e+01
1.383056388740475029e+01 2.443823643681135138e+01
1.382613746624547169e+01 2.495874257204020452e+01
1.381962360253933575e+01 2.545201783284031549e+01
1.381159816634010618e+01 2.591636789312156353e+01
1.380270246307723880e+01 2.635025961005578310e+01
1.379361522786277838e+01 2.675236891659142557e+01
1.378502301034250266e+01 2.712162698876192124e+01
1.377759024223348838e+01 2.745726202532648230e+01
1.377193029250456036e+01 2.775883412071648237e+01
1.376857877107979178e+01 2.802626099166983309e+01
1.376797024294708827e+01 2.825983272054185136e+01
1.377041936498756769e+01 2.846021418509652889e+01
1.377610726427136711e+01 2.862843443126483223e+01
1.378507374745800895e+01 2.876586288337091446e+01
1.379721567631242429e+01 2.887417294427116232e+01
1.381229157531661400e+01 2.895529418295633661e+01
1.382993226566212108e+01 2.901135490686517926e+01
1.384965705739142905e+01 2.904461743965021370e+01
1.387089478955367561e+01 2.905740884489639697e+01
1.389300879748107853e+01 2.905205012943808640e+01
1.391532471583457387e+01 2.903078710935255913e+01
1.393715990331368104e+01 2.899572611703942115e+01
1.395785320518703010e+01 2.894877756590996754e+01
1.397679375607416929e+01 2.889161007455377117e+01
1.399344756825389346e+01 2.882561739670982703e+01
1.400738074827382640e+01 2.875189982585395043e+01
1.401827833250193933e+01 2.867126106885862669e+01
1.402595792400612140e+01 2.858422084227957782e+01
1.403037754038286877e+01 2.849104267148637604e+01
1.403163733494774235e+01 2.839177560347713580e+01
1.402997512101074840e+01 2.828630781582165810e+01
1.402575589912515674e+01 2.817442945268354748e+01
1.401945584844468407e+01 2.805590147741155960e+01
1.401164148426445877e+01 2.793052692850795182e+01
1.400294489397736619e+01 2.779822072481363904e+01
1.399403613390661150e+01 2.765907410244723508e+01
1.398559399239274370e+01 2.751340988848626523e+01
1.397827639479511141e+01 2.736182512427274816e+01
1.397269174069347031e+01 2.720521803568625074e+01
1.396937242194819184e+01 2.704479699154909156e+01
1.396875167425680075e+01 2.688206986956071987e+01
1.397114476865681176e+01 2.671881313009752645e+01
1.397673535948026746e+01 2.655702084466570057e+01
1.398556757987729071e+01 2.639883489665116301e+01
1.399754422504585349e+01 2.624645852400384172e+01
1.401243109769030681e+01 2.610205626308625781e+01
1.402986732157371286e+01 2.596764413824507045e+01
1.404938116903780809e+01 2.584497458443214413e+01
1.407041070836700491e+01 2.573542105745660891e+01
1.409232836731504079e+01 2.563986755215610103e+01
1.411446833910404486e+01 2.555860829510345411e+01
1.413615563412683862e+01 2.549126269675437939e+01
1.415673550976349304e+01 2.543671023926169283e+01
1.417560199520835340e+01 2.539304935149208120e+01
1.419222426862853048e+01 2.535758350265853522e+01
1.420616973853592135e+01 2.532683675990543293e+01
1.421712282578533504e+01 2.529659994045679383e+01
1.422489863077969652e+01 2.526200728921558181e+01
1.422945089402785079e+01 2.521764237623333571e+01
1.423087390739522640e+01 2.515767068612762003e+01
1.422939829732744244e+01 2.507599521466170600e+01
1.422538086849926131e+01 2.496643034597279254e+01
1.421928895509522484e+01 2.482288840315759160e+01
1.421167996599460714e+01 2.463957258505796588e+01
1.420317701910471975e+01 2.441116955544792688e+01
1.419444172987795660e+01 2.413303476058975150e+01
1.418614534228821533e+01 2.380136363022229062e+01
1.417893946189490251e+01 2.341334216743388907e+01
1.417342766701645296e+01 2.296727104532581620e+01
1.417013923479690263e+01 2.246265818268191694e+01
1.416950612583195657e+01 2.190027583655297150e+01
1.417184422812294287e+01 2.128217948713728802e+01
1.417733967471543366e+01 2.061168715239733018e+01
1.418604082761098972e+01 1.989331920360766404e+01
1.419785627311021692e+01 1.913270020201753852e+01
1.421255891145421302e+01 1.833642568334335721e+01
1.422979595792767604e+01 1.751189812432124526e+01
1.424910441504940373e+01 1.666713748102796089e+01
1.426993133732907992e+01 1.581057264484439173e+01
1.429165800167463374e+01 1.495082087930220816e+01
1.431362692695541305e+01 1.409646274963154333e+01
1.433517056282604507e+01 1.325582021742314964e+01
1.435564039603582209e+01 1.243674543795309262e+01
1.437443520518610462e+01 1.164642737197231881e+01
1.439102723296367259e+01 1.089122262370068128e+01
1.440498513657056456e+01 1.017651597027542287e+01
1.441599271835553786e+01 9.506614893120374887e+00
1.442386262333168112e+01 8.884681105434074411e+00
1.442854441025792411e+01 8.312700645822443946e+00
1.443012664865447015e+01 7.791492634127300754e+00
1.442883295478307382e+01 7.320755321951526895e+00
1.442501214388259534e+01 6.899146677049617260e+00
1.441912293228440944e+01 6.524395474482500568e+00
1.441171386027680157e+01 6.193437779718363956e+00
1.440339931441168275e+01 5.902572843621085141e+00
1.439483269731919890e+01 5.647631820982568662e+00
1.438667791665575102e+01 5.424152396484889671e+00
1.437958043721344836e+01 5.227552366300012743e+00
1.437413915833907474e+01 5.053295479071029384e+00
1.437088034190558616e+01 4.897043373402140354e+00
1.437023472579195627e+01 4.754788234956003556e+00
1.437251881813698695e+01 4.622961798690314872e+00
1.437792118466320623e+01 4.498517495241703301e+00
1.438649432312423926e+01 4.378983832205265436e+00
1.439815247495510242e+01 4.262488453193807203e+00
1.441267546514835729e+01 4.147753669678177602e+00
1.442971839854816984e+01 4.034065552334005211e+00
1.444882678560288092e+01 3.921219842309175085e+00
1.446945643426525763e+01 3.809448946079038389e+00
1.449099723746303070e+01 3.699335065563169600e+00
1.451279981639574501e+01 3.591715052708049249e+00
1.453420385619224930e+01 3.487582840781797255e+00
1.455456689754615596e+01 3.387995281458960672e+00
1.457329232897477489e+01 3.293986908619140674e+00
1.458985536010958839e+01 3.206498570777062795e+00
1.460382584532190187e+01 3.126324050764179852e+00
1.461488696510455298e+01 3.054077761551697634e+00
1.462284895391227479e+01 2.990185418517899318e+00
1.462765727967606999e+01 2.934898296280860741e+00
1.462939492248787410e+01 2.888330342965133024e+00
1.462827865742205979e+01 2.850516109613353333e+00
1.462464950788531048e+01 2.821486220371885345e+00
1.461895778986792571e+01 2.801356020065222996e+00
1.461174340294454765e+01 2.790422144103447799e+00
1.460361223058658098e+01 2.789261107392507544e+00
1.459520968131664809e+01 2.798823639710068978e+00
1.458719252611620298e+01 2.820518428391519894e+00
1.458020026092586185e+01 2.856279175311977614e+00
1.457482724289004139e+01 2.908609430172295340e+00
1.457159681436634280e+01 2.980600508041530095e+00
1.457093854119785625e+01 3.075918904475173576e+00
1.457316955518266965e+01 3.198760942442441912e+00
1.457848081106132376e+01 3.353773867218039495e+00
1.458692885353632285e+01 3.545944185325009990e+00
1.459843344922883013e+01 3.780455652709282965e+00
1.461278118257264858e+01 4.062520883788177883e+00
1.462963485460789848e+01 4.397192005185931230e+00
1.464854827080762689e+01 4.789157047445514515e+00
1.466898576946209865e+01 5.242529792683741974e+00
1.469034563597167420e+01 5.760641523043529055e+00
1.471198637962865696e+01 6.345843502488772714e+00
1.473325472542643411e+01 6.999329045196433619e+00
1.475351409950053494e+01 7.720983664819048187e+00
1.477217236616290563e+01 8.509271063467938490e+00
1.478870760800341166e+01 9.361161626785161616e+00
1.480269082669866343e+01 1.027210867698041064e+01
1.481380457719604316e+01 1.123607604875578758e+01
1.482185672590933834e+01 1.224561865589552845e+01
1.482678873668289299e+01 1.329201568158734759e+01
1.482867812723939949e+01 1.436545393343600630e+01
1.482773499318906119e+01 1.545525683913113291e+01
1.482429275534371271e+01 1.655015260625512852e+01
1.481879353777414465e+01 1.763857331256787830e+01
1.481176881780355892e+01 1.870897520798264679e+01
1.480381619476967892e+01 1.975016936368148635e+01
1.479557329296840607e+01 2.075165105240973418e+01
1.478768993839186763e+01 2.170391592711101936e+01
1.478079982331017206e+01 2.259875120615942379e+01
1.477549289421030387e+01 2.342949067794375750e+01
1.477228966619959039e+01 2.419122339234125718e+01
1.477161858215463752e+01 2.488094738021280605e+01
1.477379740138620789e+01 2.549766158559563323e+01
1.477901942624695586e+01 2.604239134417350243e+01
1.478734516365407892e+01 2.651814511790725248e+01
1.479869978116809293e+01 2.692980271097669842e+01
1.481287646443223593e+01 2.728393775090653151e+01
1.482954552546128468e+01 2.758857972203326270e+01
1.484826886069491714e+01 2.785292318795752919e+01
1.486851912481784410e+01 2.808699394140437278e+01
1.488970278123358604e+01 2.830128358832791946e+01
1.491118602168663898e+01 2.850636543425730451e+01
1.493232242316804737e+01 2.871250543575496295e+01
1.495248113530679213e+01 2.892928236679887277e+01
1.497107436917147005e+01 2.916523120651524437e+01
1.498758298972032499e+01 2.942752307894796360e+01
1.500157909763841069e+01 2.972169388612996599e+01
1.501274461831433982e+01 3.005143211147531801e+01
1.502088509044440201e+01 3.041843418919822639e+01
1.502593805656599457e+01 3.082233341166189433e+01
1.502797569354186358e+01 3.126070566892787639e+01
1.502720157235061826e+01 3.172915248271983657e+01
1.502394169252101186e+01 3.222145891690936992e+01
1.501863018601470046e+01 3.272982112772872654e+01
1.501179031744719694e+01 3.324513566711647172e+01
1.500401161213370926e+01 3.375734027424603312e+01
1.499592411165639838e+01 3.425579387612813775e+01
1.498817088116778251e+01 3.472968194771630124e+01
1.498137996806953254e+01 3.516843231825072280e+01
1.497613703478908498e+01 3.556212599774253391e+01
1.497295985814350772e+01 3.590188765881945443e+01
1.497227580558820925e+01 3.618024104610518066e+01
1.497440326811625866e+01 3.639141577737996158e+01
1.497953785642352642e+01 3.653159370616874213e+01
1.498774395876536758e+01 3.659908517254901739e+01
1.499895202479838296e+01 3.659442799881446717e+01
1.501296168985234125e+01 3.652040489563008663e+01
1.502945059941153261e+01 3.638197792799891062e+01
1.504798854520775109e+01 3.618614173731506867e+01
1.506805629305974392e+01 3.594170021191635556e+01
1.508906827850650245e+01 3.565897413148902473e+01
1.511039817825016485e+01 3.534944987405769723e+01
1.513140624074873308e+01 3.502538147185813244e+01
1.515146718338559850e+01 3.469936005168413118e+01
1.516999743976365878e+01 3.438386593082352505e+01
1.518648056983588290e+01 3.409081931540653443e+01
1.520048972648189967e+01 3.383114563903367866e+01
1.521170620120862793e+01 3.361437108319349676e+01
1.521993324323648800e+01 3.344826275665614190e+01
1.522510455281869035e+01 3.333852641954244689e+01
1.522728708220450677e+01 3.328857257966921424e+01
1.522667802604068044e+01 3.329935934196709724e+01
1.522359613637071263e+01 3.336931764848205262e+01
1.521846774469409347e+01 3.349436160964067710e+01
1.521180810400777972e+01 3.366798360676268231e+01
1.520419886733976433e+01 3.388143085341175720e+01
1.519626268714005590e+01 3.412395724946986775e+01
1.518863604472816142e+01 3.438314175116150295e+01
1.518194149539386473e+01 3.464526220705999293e+01
1.517676053941472958e+01 3.489571175529017211e+01
1.517360830114663095e+01 3.511944350514485791e+01
1.517291111872632214e+01 3.530142838279134310e+01
1.517498801930184804e+01 3.542711073091810903e+01
1.518003688467191381e+01 3.548284652017711238e+01
1.518812590721354283e+01 3.545630983913351741e+01
1.519919070496231406e+01 3.533685464196497605e+01
1.521303721777473150e+01 3.511582049361758351e+01
1.522935025441788781e+01 3.478677318860552958e+01
1.524770731419170211e+01 3.434567354699532160e+01
1.526759707702269608e+01 3.379097031443132693e+01
1.528844175287469476e+01 3.312361581145722056e+01
1.530962231363709769e+01 3.234700568798982800e+01
1.533050550566050418e+01 3.146684674074657195e+01
1.535047146423070963e+01 3.049095914975223920e+01
1.536894072582727944e+01 2.942902159927519889e+01
1.538539946107256640e+01 2.829226949585797612e+01
1.539942182963036288e+01 2.709315782398384798e+01
1.541068848450690609e+01 2.584500104811864674e+01
1.541900042171092089e+01 2.456160285668730126e+01
1.542428757466767664e+01 2.325688844636737684e+01
1.542661178226557794e+01 2.194455148011022416e+01
1.542616400492008921e+01 2.063772685357638892e+01
1.542325591385823813e+01 1.934869902238929384e+01
1.541830622401924700e+01 1.808865394081858113e+01
1.541182236984994702e+01 1.686748071628180057e+01
1.540437832588113665e+01 1.569362697631060399e+01
1.539658954148826275e+01 1.457400976262699288e+01
1.538908608438908310e+01 1.351398159875176042e+01
1.538248516478437011e+01 1.251734930837983839e+01
1.537736423826590482e+01 1.158644127070516561e+01
1.537423585958954497e+01 1.072221715585100377e+01
1.537352538231011856e+01 9.924412846593444470e+00
1.537555247449318330e+01 9.191712265745033861e+00
1.538051725372793221e+01 8.521937220533692070e+00
1.538849164277229420e+01 7.912246158440101595e+00
1.539941631919025511e+01 7.359332899193986144e+00
1.541310338824537318e+01 6.859616945032438906e+00
1.542924465874694739e+01 6.409417841237999625e+00
1.544742515738518307e+01 6.005107213792917342e+00
1.546714128898237739e+01 5.643233492420897335e+00
1.548782284795722575e+01 5.320615869028979539e+00
1.550885791894608445e+01 5.034405672244269603e+00
1.552961957921784197e+01 4.782114985032958288e+00
1.554949323769406710e+01 4.561613922143554767e+00
1.556790341840356362e+01 4.371099449382318092e+00
1.558433882120295699e+01 4.209039906545701371e+00
1.559837456845913195e+01 4.074100438687092485e+00
1.560969066977422770e+01 3.965055306203254304e+00
1.561808590232946869e+01 3.880693505840368207e+00
1.562348650479049539e+01 3.819724278830032738e+00
1.562594930919415326e+01 3.780688909795989261e+00
1.562565917793881454e+01 3.761884745498602634e+00
1.562292086133444968e+01 3.761306613531652410e+00
1.561814563430859870e+01 3.776609836917093510e+00
1.561183329821169963e+01 3.805097869963555368e+00
1.560455033532453584e+01 3.843736279930782374e+00
1.559690517086359129e+01 3.889193428965043164e+00
1.558952162274532149e+01 3.937906834515454424e+00
1.558301169766265915e+01 3.986172866421351380e+00
1.557794891976736018e+01 4.030256234110197511e+00
1.557484335426137356e+01 4.066514681030477085e+00
1.557411941356049390e+01 4.091533480619037100e+00
1.557609741168929673e+01 4.102263753886245645e+00
1.558097966854859528e+01 4.096158326888275525e+00
