Tiempo(s),Fuerza(N)
0,8.600973128
0.1,16.78208179
0.2,31.20347596
0.3,41.10976075
0.4,43.89969401
0.5,40.67846672
0.6,34.64035028
0.7,33.57559314
0.8,34.64035028
0.9,35.28729132
1,35.07164431
1.1,35.50293834
1.2,36.14987939
1.3,36.3655264
1.4,35.07164431
1.5,35.50293834
1.6,35.93423237
1.7,35.71858535
1.8,36.14987939
1.9,36.14987939
2,35.93423237
2.1,34.85599729
2.2,33.57559314
2.3,32.28171104
2.4,31.63476999
2.5,30.98782895
2.6,29.90959387
2.7,29.90959387
2.8,30.3408879
2.9,30.77218193
3,31.63476999
3.1,29.90959387
3.2,25.39448448
3.3,23.66930835
3.4,25.82577851
3.5,25.82577851
3.6,24.74754343
3.7,24.74754343
3.8,43.03710595
3.9,49.49303848
4,43.684047
4.1,40.4628197
4.2,37.01246745
4.3,35.07164431
4.4,31.20347596
4.5,28.40006476
4.6,27.32182968
4.7,27.10618266
4.8,25.61013149
4.9,24.3162494
5,23.88495537
5.1,23.88495537
5.2,24.74754343
5.3,26.89053565
5.4,28.40006476
5.5,29.26265282
5.6,29.47829984
5.7,29.90959387
5.8,29.26265282
5.9,28.40006476
6,27.75312371
6.1,28.18441774
6.2,29.04700581
6.3,29.04700581
6.4,29.04700581
6.5,28.40006476
6.6,28.18441774
6.7,28.18441774
6.8,27.5374767
6.9,27.10618266
7,26.25707254
7.1,25.39448448
7.2,24.96319045
7.3,24.74754343
7.4,24.96319045
7.5,24.96319045
7.6,24.74754343
7.7,24.3162494
7.8,24.10060238
7.9,24.10060238
8,24.96319045
8.1,25.39448448
8.2,25.61013149
8.3,25.61013149
8.4,25.61013149
8.5,25.61013149
8.6,25.61013149
8.7,25.82577851
8.8,26.47271956
8.9,27.96877073
9,29.69394685
9.1,29.26265282
9.2,30.55653492
9.3,30.55653492
9.4,30.77218193
9.5,30.55653492
9.6,30.3408879
9.7,29.90959387
9.8,29.90959387
9.9,29.69394685
10,29.47829984
10.1,29.26265282
10.2,28.83135879
10.3,28.61571177
10.4,28.40006476
10.5,28.18441774
10.6,27.75312371
10.7,27.75312371
10.8,28.18441774
10.9,27.96877073
11,28.18441774
11.1,28.18441774
11.2,28.18441774
11.3,28.18441774
11.4,28.61571177
11.5,28.18441774
11.6,28.40006476
11.7,29.26265282
11.8,30.12524088
11.9,29.90959387
12,29.26265282
12.1,29.26265282
12.2,28.83135879
12.3,29.26265282
12.4,29.04700581
12.5,29.26265282
12.6,30.12524088
12.7,32.06606403
12.8,32.71300507
12.9,31.85041701
13,32.06606403
13.1,31.63476999
13.2,30.98782895
13.3,30.77218193
13.4,31.63476999
13.5,30.98782895
13.6,30.55653492
13.7,30.55653492
13.8,30.3408879
13.9,30.55653492
14,30.98782895
14.1,31.63476999
14.2,31.20347596
14.3,31.20347596
14.4,30.98782895
14.5,30.77218193
14.6,29.04700581
14.7,29.47829984
14.8,29.90959387
14.9,30.77218193
15,30.3408879
15.1,30.12524088
15.2,29.47829984
15.3,29.90959387
15.4,30.12524088
15.5,30.12524088
15.6,30.12524088
15.7,30.12524088
15.8,29.90959387
15.9,30.12524088
16,29.47829984
16.1,29.26265282
16.2,29.26265282
16.3,29.04700581
16.4,29.04700581
16.5,28.18441774
16.6,28.83135879
16.7,29.26265282
16.8,28.18441774
16.9,28.61571177
17,28.40006476
17.1,28.83135879
17.2,28.83135879
17.3,29.04700581
17.4,29.47829984
17.5,29.69394685
17.6,29.90959387
17.7,30.55653492
17.8,30.98782895
17.9,31.20347596
18,31.20347596
18.1,31.41912298
18.2,31.63476999
18.3,30.98782895
18.4,31.41912298
18.5,32.49735806
18.6,33.79124015
18.7,33.79124015
18.8,34.00688717
18.9,34.42470326
19,33.79124015
19.1,32.71300507
19.2,31.85041701
19.3,31.20347596
19.4,30.3408879
19.5,30.12524088
19.6,30.77218193
19.7,31.63476999
19.8,31.85041701
19.9,30.98782895
20,31.41912298
20.1,31.20347596
20.2,31.20347596
20.3,30.98782895
20.4,29.90959387
20.5,30.3408879
20.6,30.77218193
20.7,31.41912298
20.8,32.92865209
20.9,34.42470326
21,35.50293834
21.1,35.50293834
21.2,35.28729132
21.3,34.42470326
21.4,33.79124015
21.5,33.57559314
21.6,32.71300507
21.7,32.28171104
21.8,32.49735806
21.9,32.49735806
22,31.63476999
22.1,31.41912298
22.2,31.20347596
22.3,30.98782895
22.4,30.55653492
22.5,30.12524088
22.6,30.12524088
22.7,30.12524088
22.8,29.90959387
22.9,29.26265282
23,28.40006476
23.1,28.61571177
23.2,28.61571177
23.3,28.83135879
23.4,28.61571177
23.5,28.61571177
23.6,29.04700581
23.7,28.83135879
23.8,29.04700581
23.9,28.83135879
24,28.40006476
24.1,28.83135879
24.2,29.26265282
24.3,29.90959387
24.4,29.69394685
24.5,29.69394685
24.6,29.69394685
24.7,29.26265282
24.8,29.26265282
24.9,29.69394685
25,30.3408879
25.1,30.3408879
25.2,30.3408879
25.3,30.77218193
25.4,30.55653492
25.5,29.90959387
25.6,30.55653492
25.7,29.69394685
25.8,29.69394685
25.9,29.90959387
26,29.90959387
26.1,29.90959387
26.2,30.3408879
26.3,30.55653492
26.4,30.3408879
26.5,29.90959387
26.6,29.90959387
26.7,29.69394685
26.8,29.47829984
26.9,29.90959387
27,30.98782895
27.1,30.77218193
27.2,30.98782895
27.3,30.98782895
27.4,31.41912298
27.5,31.63476999
27.6,31.41912298
27.7,30.98782895
27.8,31.63476999
27.9,31.63476999
28,31.41912298
28.1,31.63476999
28.2,32.49735806
28.3,33.1442991
28.4,33.1442991
28.5,33.1442991
28.6,32.92865209
28.7,32.92865209
28.8,32.92865209
28.9,32.49735806
29,32.06606403
29.1,32.71300507
29.2,33.57559314
29.3,34.00688717
29.4,33.79124015
29.5,33.57559314
29.6,33.57559314
29.7,32.71300507
29.8,32.28171104
29.9,32.49735806
30,32.71300507
30.1,32.49735806
30.2,32.49735806
30.3,32.49735806
30.4,32.92865209
30.5,32.49735806
30.6,31.85041701
30.7,32.28171104
30.8,32.49735806
30.9,32.28171104
31,32.28171104
31.1,32.28171104
31.2,32.71300507
31.3,32.06606403
31.4,31.63476999
31.5,32.49735806
31.6,32.71300507
31.7,32.49735806
31.8,32.49735806
31.9,32.49735806
32,32.28171104
32.1,32.28171104
32.2,32.06606403
32.3,32.28171104
32.4,32.28171104
32.5,31.85041701
32.6,31.20347596
32.7,30.77218193
32.8,30.55653492
32.9,30.12524088
33,29.90959387
33.1,29.90959387
33.2,29.26265282
33.3,29.47829984
33.4,29.47829984
33.5,29.26265282
33.6,29.26265282
33.7,28.61571177
33.8,28.83135879
33.9,28.83135879
34,29.04700581
34.1,29.04700581
34.2,29.26265282
34.3,29.26265282
34.4,29.26265282
34.5,29.26265282
34.6,29.26265282
34.7,29.26265282
34.8,29.04700581
34.9,29.26265282
35,29.47829984
35.1,29.26265282
35.2,29.26265282
35.3,29.26265282
35.4,29.04700581
35.5,29.90959387
35.6,29.47829984
35.7,29.47829984
35.8,29.47829984
35.9,29.47829984
36,29.69394685
36.1,29.47829984
36.2,29.04700581
36.3,29.26265282
36.4,28.18441774
36.5,28.18441774
36.6,28.40006476
36.7,27.75312371
36.8,27.96877073
36.9,27.5374767
37,26.68836657
37.1,26.68836657
37.2,27.10618266
37.3,27.10618266
37.4,27.32182968
37.5,27.5374767
37.6,27.75312371
37.7,27.96877073
37.8,27.75312371
37.9,27.96877073
38,27.75312371
38.1,27.96877073
38.2,27.5374767
38.3,27.5374767
38.4,27.5374767
38.5,27.96877073
38.6,27.75312371
38.7,27.75312371
38.8,27.75312371
38.9,27.32182968
39,27.75312371
39.1,27.5374767
39.2,27.32182968
39.3,27.32182968
39.4,27.5374767
39.5,27.5374767
39.6,26.68836657
39.7,26.89053565
39.8,27.5374767
39.9,27.32182968
40,27.75312371
40.1,27.5374767
40.2,27.32182968
40.3,27.32182968
40.4,27.10618266
40.5,27.10618266
40.6,26.89053565
40.7,27.10618266
40.8,27.32182968
40.9,27.32182968
41,27.32182968
41.1,26.89053565
41.2,27.10618266
41.3,27.10618266
41.4,26.89053565
41.5,26.68836657
41.6,26.68836657
41.7,26.68836657
41.8,26.68836657
41.9,26.25707254
42,26.04142552
42.1,25.61013149
42.2,25.82577851
42.3,25.17883746
42.4,25.39448448
42.5,25.61013149
42.6,25.61013149
42.7,25.61013149
42.8,25.61013149
42.9,25.61013149
43,25.39448448
43.1,25.17883746
43.2,24.96319045
43.3,24.74754343
43.4,24.74754343
43.5,24.74754343
43.6,24.96319045
43.7,24.96319045
43.8,24.96319045
43.9,25.39448448
44,25.61013149
44.1,25.61013149
44.2,25.39448448
44.3,25.17883746
44.4,25.17883746
44.5,25.17883746
44.6,25.39448448
44.7,24.74754343
44.8,24.96319045
44.9,24.74754343
45,24.53189641
45.1,24.53189641
45.2,24.3162494
45.3,24.3162494
45.4,24.3162494
45.5,24.53189641
45.6,24.10060238
45.7,23.88495537
45.8,23.66930835
45.9,23.66930835
46,23.45366134
46.1,23.23801432
46.2,22.80672029
46.3,22.59107327
46.4,23.45366134
46.5,23.88495537
46.6,23.88495537
46.7,23.66930835
46.8,23.66930835
46.9,23.66930835
47,23.66930835
47.1,23.66930835
47.2,23.66930835
47.3,23.45366134
47.4,23.23801432
47.5,23.0223673
47.6,23.0223673
47.7,23.23801432
47.8,23.66930835
47.9,23.66930835
48,24.10060238
48.1,23.88495537
48.2,23.45366134
48.3,23.66930835
48.4,23.88495537
48.5,23.88495537
48.6,23.66930835
48.7,23.66930835
48.8,23.88495537
48.9,23.88495537
49,23.45366134
49.1,23.23801432
49.2,23.45366134
49.3,23.23801432
49.4,23.23801432
49.5,23.66930835
49.6,24.10060238
49.7,24.3162494
49.8,24.10060238
49.9,23.66930835
50,24.10060238
50.1,24.10060238
50.2,24.10060238
50.3,24.10060238
50.4,24.10060238
50.5,24.10060238
50.6,24.3162494
50.7,24.3162494
50.8,24.10060238
50.9,24.3162494
51,24.10060238
51.1,24.10060238
51.2,24.10060238
51.3,24.10060238
51.4,24.10060238
51.5,23.88495537
51.6,23.0223673
51.7,23.23801432
51.8,23.66930835
51.9,23.88495537
52,23.88495537
52.1,23.88495537
52.2,23.66930835
52.3,23.45366134
52.4,23.45366134
52.5,23.45366134
52.6,23.23801432
52.7,23.23801432
52.8,23.23801432
52.9,23.23801432
53,22.80672029
53.1,22.37542626
53.2,22.59107327
53.3,22.37542626
53.4,22.37542626
53.5,22.37542626
53.6,22.37542626
53.7,22.80672029
53.8,22.80672029
53.9,22.59107327
54,22.59107327
54.1,22.37542626
54.2,22.59107327
54.3,22.80672029
54.4,22.59107327
54.5,22.37542626
54.6,22.59107327
54.7,22.59107327
54.8,22.15977924
54.9,22.15977924
55,21.94413223
55.1,21.72848521
55.2,21.51283819
55.3,21.94413223
55.4,22.15977924
55.5,21.72848521
55.6,21.51283819
55.7,21.72848521
55.8,21.72848521
55.9,21.72848521
56,21.94413223
56.1,21.94413223
56.2,21.94413223
56.3,21.51283819
56.4,21.51283819
56.5,21.29719118
56.6,21.29719118
56.7,20.86589715
56.8,20.43460312
56.9,20.43460312
57,20.43460312
57.1,20.43460312
57.2,20.43460312
57.3,20.43460312
57.4,20.2189561
57.5,20.2189561
57.6,19.78766207
57.7,19.57201505
57.8,19.57201505
57.9,19.57201505
58,19.57201505
58.1,19.78766207
58.2,19.78766207
58.3,19.78766207
58.4,19.57201505
58.5,19.78766207
58.6,19.78766207
58.7,19.78766207
58.8,19.78766207
58.9,19.78766207
59,19.78766207
59.1,19.78766207
59.2,19.78766207
59.3,20.00330908
59.4,19.78766207
59.5,19.57201505
59.6,19.57201505
59.7,19.57201505
59.8,19.78766207
59.9,19.78766207
60,19.78766207
60.1,19.57201505
60.2,19.57201505
60.3,19.57201505
60.4,19.57201505
60.5,19.78766207
60.6,20.2189561
60.7,20.2189561
60.8,19.78766207
60.9,19.36984598
61,19.15419896
61.1,19.57201505
61.2,19.78766207
61.3,19.57201505
61.4,19.36984598
61.5,19.36984598
61.6,19.15419896
61.7,19.15419896
61.8,19.78766207
61.9,19.57201505
62,18.50725791
62.1,18.07596388
62.2,18.2916109
62.3,19.15419896
62.4,19.57201505
62.5,18.93855194
62.6,17.86031687
62.7,17.86031687
62.8,18.2916109
62.9,17.42902283
63,17.86031687
63.1,18.50725791
63.2,18.50725791
63.3,18.07596388
63.4,18.07596388
63.5,17.21337582
63.6,17.21337582
63.7,17.42902283
63.8,17.86031687
63.9,17.86031687
64,17.21337582
64.1,16.9977288
64.2,17.21337582
64.3,17.64466985
64.4,18.07596388
64.5,18.2916109
64.6,18.2916109
64.7,18.2916109
64.8,18.72290493
64.9,18.72290493
65,18.50725791
65.1,18.07596388
65.2,18.50725791
65.3,18.2916109
65.4,18.50725791
65.5,18.07596388
65.6,18.07596388
65.7,17.86031687
65.8,18.07596388
65.9,18.07596388
66,17.86031687
66.1,17.64466985
66.2,17.86031687
66.3,17.64466985
66.4,17.64466985
66.5,17.64466985
66.6,17.64466985
66.7,17.86031687
66.8,17.86031687
66.9,17.86031687
67,18.07596388
67.1,18.93855194
67.2,19.36984598
67.3,19.15419896
67.4,18.72290493
67.5,18.50725791
67.6,18.2916109
67.7,18.2916109
67.8,18.50725791
67.9,18.93855194
68,19.36984598
68.1,18.72290493
68.2,18.50725791
68.3,18.72290493
68.4,18.72290493
68.5,18.50725791
68.6,18.50725791
68.7,18.72290493
68.8,18.93855194
68.9,18.93855194
69,18.93855194
69.1,18.72290493
69.2,18.72290493
69.3,18.50725791
69.4,18.2916109
69.5,18.2916109
69.6,18.07596388
69.7,17.86031687
69.8,18.07596388
69.9,17.86031687
70,18.07596388
70.1,17.86031687
70.2,17.64466985
70.3,17.86031687
70.4,18.07596388
70.5,18.07596388
70.6,17.86031687
70.7,17.64466985
70.8,17.42902283
70.9,17.21337582
71,17.86031687
71.1,17.42902283
71.2,17.21337582
71.3,16.9977288
71.4,16.9977288
71.5,17.21337582
71.6,17.42902283
71.7,17.21337582
71.8,16.9977288
71.9,17.21337582
72,16.9977288
72.1,16.56643477
72.2,16.35078776
72.3,16.56643477
72.4,16.56643477
72.5,16.35078776
72.6,16.35078776
72.7,16.13514074
72.8,15.91949372
72.9,16.35078776
73,16.35078776
73.1,16.56643477
73.2,16.9977288
73.3,16.56643477
73.4,15.91949372
73.5,16.35078776
73.6,16.35078776
73.7,16.35078776
73.8,16.35078776
73.9,16.13514074
74,15.91949372
74.1,15.70384671
74.2,16.13514074
74.3,16.35078776
74.4,16.78208179
74.5,16.56643477
74.6,16.35078776
74.7,16.13514074
74.8,16.35078776
74.9,16.78208179
75,16.56643477
75.1,16.56643477
75.2,16.35078776
75.3,15.48819969
75.4,15.70384671
75.5,16.13514074
75.6,16.13514074
75.7,15.70384671
75.8,15.70384671
75.9,15.48819969
76,15.70384671
76.1,15.48819969
76.2,15.48819969
76.3,15.05690566
76.4,15.05690566
76.5,14.84125865
76.6,14.40996461
76.7,14.62561163
76.8,13.97867058
76.9,13.76302357
77,13.97867058
77.1,14.40996461
77.2,14.40996461
77.3,14.1943176
77.4,14.1943176
77.5,13.76302357
77.6,13.54737655
77.7,13.54737655
77.8,13.11608252
77.9,12.9004355
78,13.11608252
78.1,13.33172954
78.2,13.33172954
78.3,13.11608252
78.4,13.33172954
78.5,13.33172954
78.6,12.9004355
78.7,13.11608252
78.8,12.68478849
78.9,12.68478849
79,12.68478849
79.1,12.68478849
79.2,12.9004355
79.3,12.9004355
79.4,12.9004355
79.5,13.11608252
79.6,13.11608252
79.7,12.9004355
79.8,13.11608252
79.9,13.33172954
80,
