Tiempo(s)	Caudal(L/s)	Volumen(L)
0	-0.061294128	0
0.02	-0.061294128	0.001225883
0.04	-0.061294128	0.002451765
0.06	-0.051772643	0.003582433
0.08	-0.051772643	0.004617886
0.1	-0.061294128	0.005748553
0.12	-0.061294128	0.006974436
0.14	-0.061294128	0.008200318
0.16	-0.061294128	0.009426201
0.18	-0.051772643	0.010556869
0.2	-0.061294128	0.011687536
0.22	-0.071410705	0.013014585
0.24	-0.061294128	0.014341633
0.26	-0.061294128	0.015567516
0.28	-0.061294128	0.016793398
0.3	-0.061294128	0.018019281
0.32	-0.061294128	0.019245163
0.34	-0.061294128	0.020471046
0.36	-0.051772643	0.021601714
0.38	-0.061294128	0.022732381
0.4	-0.061294128	0.023958264
0.42	-0.061294128	0.025184146
0.44	-0.061294128	0.026410029
0.46	-0.051772643	0.027540697
0.48	-0.061294128	0.028671364
0.5	-0.061294128	0.029897247
0.52	-0.061294128	0.031123129
0.54	-0.061294128	0.032349012
0.56	-0.061294128	0.033574895
0.58	-0.061294128	0.034800777
0.6	-0.061294128	0.03602666
0.62	-0.061294128	0.037252542
0.64	-0.061294128	0.038478425
0.66	-0.051772643	0.039609092
0.68	-0.061294128	0.04073976
0.7	-0.061294128	0.041965643
0.72	-0.051772643	0.04309631
0.74	-0.061294128	0.044226978
0.76	-0.061294128	0.045452861
0.78	-0.061294128	0.046678743
0.8	-0.061294128	0.047904626
0.82	-0.061294128	0.049130508
0.84	-0.061294128	0.050356391
0.86	-0.061294128	0.051582273
0.88	-0.061294128	0.052808156
0.9	-0.061294128	0.054034039
0.92	-0.061294128	0.055259921
0.94	-0.061294128	0.056485804
0.96	-0.061294128	0.057711686
0.98	-0.061294128	0.058937569
1	-0.061294128	0.060163451
1.02	-0.051772643	0.061294119
1.04	-0.061294128	0.062424787
1.06	-0.051772643	0.063555454
1.08	-0.051772643	0.064590907
1.1	-0.061294128	0.065721575
1.12	-0.061294128	0.066947458
1.14	-0.061294128	0.06817334
1.16	-0.061294128	0.069399223
1.18	-0.061294128	0.070625105
1.2	-0.061294128	0.071850988
1.22	-0.061294128	0.07307687
1.24	-0.061294128	0.074302753
1.26	-0.061294128	0.075528635
1.28	-0.061294128	0.076754518
1.3	-0.061294128	0.077980401
1.32	-0.061294128	0.079206283
1.34	-0.061294128	0.080432166
1.36	-0.051772643	0.081562833
1.38	-0.061294128	0.082693501
1.4	-0.061294128	0.083919384
1.42	-0.061294128	0.085145266
1.44	-0.061294128	0.086371149
1.46	-0.061294128	0.087597031
1.48	-0.061294128	0.088822914
1.5	-0.061294128	0.090048796
1.52	-0.061294128	0.091274679
1.54	-0.061294128	0.092500561
1.56	-0.061294128	0.093726444
1.58	-0.061294128	0.094952327
1.6	-0.061294128	0.096178209
1.62	-0.061294128	0.097404092
1.64	-0.061294128	0.098629974
1.66	-0.051772643	0.099760642
1.68	-0.061294128	0.10089131
1.7	-0.061294128	0.102117192
1.72	-0.061294128	0.103343075
1.74	-0.051772643	0.104473742
1.76	-0.051772643	0.105509195
1.78	-0.061294128	0.106639863
1.8	-0.071410705	0.107966911
1.82	-0.061294128	0.10929396
1.84	-0.061294128	0.110519842
1.86	-0.061294128	0.111745725
1.88	-0.061294128	0.112971607
1.9	-0.061294128	0.11419749
1.92	-0.061294128	0.115423372
1.94	-0.061294128	0.116649255
1.96	-0.061294128	0.117875138
1.98	-0.061294128	0.11910102
2	-0.061294128	0.120326903
2.02	-0.061294128	0.121552785
2.04	-0.061294128	0.122778668
2.06	-0.061294128	0.12400455
2.08	-0.061294128	0.125230433
2.1	-0.061294128	0.126456315
2.12	-0.061294128	0.127682198
2.14	-0.061294128	0.128908081
2.16	-0.061294128	0.130133963
2.18	-0.061294128	0.131359846
2.2	-0.051772643	0.132490513
2.22	-0.061294128	0.133621181
2.24	-0.061294128	0.134847064
2.26	-0.051772643	0.135977731
2.28	-0.051772643	0.137013184
2.3	-0.051772643	0.138048637
2.32	-0.061294128	0.139179305
2.34	-0.061294128	0.140405187
2.36	-0.061294128	0.14163107
2.38	-0.061294128	0.142856952
2.4	-0.061294128	0.144082835
2.42	-0.061294128	0.145308718
2.44	-0.061294128	0.1465346
2.46	-0.061294128	0.147760483
2.48	-0.051772643	0.14889115
2.5	-0.061294128	0.150021818
2.52	-0.061294128	0.151247701
2.54	-0.061294128	0.152473583
2.56	-0.051772643	0.153604251
2.58	-0.061294128	0.154734919
2.6	-0.061294128	0.155960801
2.62	-0.061294128	0.157186684
2.64	-0.061294128	0.158412566
2.66	-0.061294128	0.159638449
2.68	-0.051772643	0.160769116
2.7	-0.051772643	0.161804569
2.72	-0.051772643	0.162840022
2.74	-0.051772643	0.163875475
2.76	-0.051772643	0.164910928
2.78	-0.061294128	0.166041596
2.8	-0.061294128	0.167267478
2.82	-0.061294128	0.168493361
2.84	-0.061294128	0.169719243
2.86	-0.061294128	0.170945126
2.88	-0.061294128	0.172171008
2.9	-0.061294128	0.173396891
2.92	-0.061294128	0.174622773
2.94	-0.051772643	0.175753441
2.96	-0.061294128	0.176884109
2.98	-0.051772643	0.178014777
3	-0.051772643	0.179050229
3.02	-0.051772643	0.180085682
3.04	-0.042251158	0.18102592
3.06	-0.042251158	0.181870944
3.08	-0.051772643	0.182811182
3.1	-0.051772643	0.183846634
3.12	-0.042251158	0.184786872
3.14	-0.051772643	0.18572711
3.16	-0.061294128	0.186857778
3.18	-0.061294128	0.188083661
3.2	-0.061294128	0.189309543
3.22	-0.071410705	0.190636592
3.24	-0.071410705	0.192064806
3.26	-0.061294128	0.193391854
3.28	-0.061294128	0.194617737
3.3	-0.061294128	0.195843619
3.32	-0.061294128	0.197069502
3.34	-0.061294128	0.198295384
3.36	-0.051772643	0.199426052
3.38	-0.051772643	0.200461505
3.4	-0.061294128	0.201592172
3.42	-0.061294128	0.202818055
3.44	-0.051772643	0.203948723
3.46	-0.061294128	0.20507939
3.48	-0.032134581	0.206013678
3.5	-0.022613096	0.206561154
3.52	-0.032134581	0.207108631
3.54	-0.022613096	0.207656108
3.56	-0.013091612	0.208013155
3.58	-0.013091612	0.208274987
3.6	-0.032134581	0.208727249
3.62	-0.051772643	0.209566321
3.64	-0.061294128	0.210696989
3.66	-0.061294128	0.211922872
3.68	-0.051772643	0.213053539
3.7	-0.042251158	0.213993777
3.72	-0.042251158	0.2148388
3.74	-0.061294128	0.215874253
3.76	-0.100570252	0.217492897
3.78	-0.188048891	0.220379089
3.8	-0.255889469	0.224818472
3.82	-0.266006047	0.230037427
3.84	-0.226729923	0.234964787
3.86	-0.168410829	0.238916195
3.88	-0.120208314	0.241802386
3.9	-0.14936786	0.244498148
3.92	-0.266006047	0.248651887
3.94	-0.41180378	0.255429985
3.96	-0.567122997	0.265219253
3.98	-0.71292073	0.27801969
4	-0.781356401	0.292962461
4.02	-0.829558917	0.309071615
4.04	-0.88787801	0.326245984
4.06	-0.917037557	0.34429514
4.08	-1.014632774	0.363611843
4.1	-1.053313805	0.384291309
4.12	-1.160430507	0.406428752
4.14	-1.169951992	0.429732577
4.16	-1.160430507	0.453036402
4.18	-1.189590054	0.476536607
4.2	-1.228271085	0.500715219
4.22	-1.238387662	0.525381806
4.24	-1.267547209	0.550441155
4.26	-1.247909147	0.575595718
4.28	-1.209228116	0.600167091
4.3	-1.180068569	0.624060058
4.32	-1.140792445	0.647268668
4.34	-1.160430507	0.670280898
4.36	-1.150909022	0.693394293
4.38	-1.13127096	0.716216093
4.4	-1.111632898	0.738645131
4.42	-1.121749476	0.760978955
4.44	-1.072951867	0.782925968
4.46	-1.034270836	0.803998196
4.48	-1.034270836	0.824683612
4.5	-0.946197103	0.844488292
4.52	-0.868835041	0.862638613
4.54	-0.732558792	0.878652551
4.56	-0.606399121	0.892042131
4.58	-0.41180378	0.90222416
4.6	-0.266006047	0.909002258
4.62	-0.217208438	0.913834403
4.64	-0.168410829	0.917690595
4.66	-0.129729798	0.920672002
4.68	-0.071410705	0.922683407
4.7	0.016067935	0.923236834
4.72	0.171982245	0.921356333
4.74	0.317779978	0.91645871
4.76	0.443939649	0.908841514
4.78	0.51237532	0.899278364
4.8	0.551056351	0.888644048
4.82	0.629013506	0.876843349
4.84	0.667694538	0.863876269
4.86	0.677216022	0.850427163
4.88	0.696854084	0.836686462
4.9	0.706375569	0.822654165
4.92	0.716492146	0.808425488
4.94	0.716492146	0.794095645
4.96	0.735535115	0.779575373
4.98	0.726013631	0.764959885
5	0.716492146	0.750534827
5.02	0.735535115	0.736014555
5.04	0.735535115	0.721303853
5.06	0.726013631	0.706688365
5.08	0.696854084	0.692459688
5.1	0.667694538	0.678814202
5.12	0.629013506	0.665847121
5.14	0.59985396	0.653558447
5.16	0.570694413	0.641852963
5.18	0.560577836	0.63054024
5.2	0.570694413	0.619227518
5.22	0.570694413	0.60781363
5.24	0.560577836	0.596500907
5.26	0.570694413	0.585188185
5.28	0.560577836	0.573875462
5.3	0.551056351	0.56275912
5.32	0.521896805	0.552029589
5.34	0.483215773	0.541978463
5.36	0.443939649	0.532706909
5.38	0.414780103	0.524119711
5.4	0.405258618	0.515919324
5.42	0.395737134	0.507909367
5.44	0.346939525	0.5004826
5.46	0.317779978	0.493835405
5.48	0.288620432	0.487771401
5.5	0.249344308	0.482391753
5.52	0.239822823	0.477500082
5.54	0.220184761	0.472900006
5.56	0.210663276	0.468591526
5.58	0.201141792	0.464473475
5.6	0.18150373	0.46064702
5.62	0.161865668	0.457213326
5.64	0.132706121	0.454267608
5.66	0.113663152	0.451803915
5.68	0.084503605	0.449822248
5.7	0.045227481	0.448524937
5.72	-0.013091612	0.448203578
5.74	-0.051772643	0.448852221
5.76	-0.071410705	0.450084054
5.78	-0.08093219	0.451607483
5.8	-0.100570252	0.453422508
5.82	-0.139251283	0.455820723
5.84	-0.188048891	0.459093725
5.86	-0.2368465	0.463342679
5.88	-0.285049016	0.468561634
5.9	-0.343368109	0.474845805
5.92	-0.41180378	0.482397524
5.94	-0.479644358	0.491312005
5.96	-0.518325389	0.501291703
5.98	-0.557601513	0.512050972
6	-0.567122997	0.523298217
6.02	-0.577239575	0.534741843
6.04	-0.577239575	0.546286634
6.06	-0.567122997	0.55773026
6.08	-0.577239575	0.569173886
6.1	-0.577239575	0.580718677
6.12	-0.548080028	0.591971873
6.14	-0.518325389	0.602635927
6.16	-0.49928242	0.612812005
6.18	-0.508803904	0.622892869
6.2	-0.508803904	0.633068947
6.22	-0.537963451	0.64353662
6.24	-0.548080028	0.654397055
6.26	-0.567122997	0.665549085
6.28	-0.577239575	0.676992711
6.3	-0.567122997	0.688436337
6.32	-0.537963451	0.699487201
6.34	-0.528441966	0.710151255
6.36	-0.528441966	0.720720095
6.38	-0.557601513	0.731580529
6.4	-0.596282544	0.74311937
6.42	-0.635558668	0.755437782
6.44	-0.683761184	0.768630981
6.46	-0.703399246	0.782502585
6.48	-0.723037308	0.79676695
6.5	-0.693877761	0.810936101
6.52	-0.674239699	0.824617276
6.54	-0.625442091	0.837614094
6.56	-0.606399121	0.849932506
6.58	-0.577239575	0.861768893
6.6	-0.557601513	0.873117304
6.62	-0.537963451	0.884072953
6.64	-0.518325389	0.894635842
6.66	-0.479644358	0.904615539
6.68	-0.430846749	0.91372045
6.7	-0.392165718	0.921950575
6.72	-0.363006171	0.929502294
6.74	-0.333846625	0.936470822
6.76	-0.314208563	0.942951374
6.78	-0.333846625	0.949431925
6.8	-0.382644233	0.956596834
6.82	-0.382644233	0.964249719
6.84	-0.363006171	0.971706223
6.86	-0.304687078	0.978383155
6.88	-0.246367985	0.983893706
6.9	-0.158889345	0.987946279
6.92	-0.071410705	0.99024928
6.94	0.016067935	0.990802707
6.96	0.113663152	0.989505396
6.98	0.191025214	0.986458513
7	0.249344308	0.982054818
7.02	0.298141916	0.976579955
7.04	0.336822948	0.970230307
7.06	0.395737134	0.962904706
7.08	0.443939649	0.954507938
7.1	0.502258743	0.945045954
7.12	0.531418289	0.934709184
7.14	0.551056351	0.923884437
7.16	0.570694413	0.91266693
7.18	0.570694413	0.901253042
7.2	0.560577836	0.889940319
7.22	0.551056351	0.878823977
7.24	0.551056351	0.86780285
7.26	0.541534867	0.856876938
7.28	0.531418289	0.846147406
7.3	0.531418289	0.835519041
7.32	0.541534867	0.824789509
7.34	0.551056351	0.813863597
7.36	0.551056351	0.80284247
7.38	0.541534867	0.791916558
7.4	0.541534867	0.78108586
7.42	0.531418289	0.770356329
7.44	0.521896805	0.759823178
7.46	0.521896805	0.749385242
7.48	0.492737258	0.739238901
7.5	0.483215773	0.729479371
7.52	0.483215773	0.719815055
7.54	0.483215773	0.71015074
7.56	0.502258743	0.700295995
7.58	0.521896805	0.690054439
7.6	0.541534867	0.679420123
7.62	0.541534867	0.668589425
7.64	0.521896805	0.657955109
7.66	0.531418289	0.647421958
7.68	0.531418289	0.636793592
7.7	0.521896805	0.626260441
7.72	0.521896805	0.615822505
7.74	0.51237532	0.605479784
7.76	0.492737258	0.595428658
7.78	0.473099196	0.585770293
7.8	0.473099196	0.576308309
7.82	0.473099196	0.566846325
7.84	0.473099196	0.557384341
7.86	0.473099196	0.547922358
7.88	0.473099196	0.538460374
7.9	0.454056227	0.529188819
7.92	0.42489668	0.52039929
7.94	0.414780103	0.512002522
7.96	0.42489668	0.503605755
7.98	0.414780103	0.495208987
8	0.395737134	0.487103814
8.02	0.395737134	0.479189072
8.04	0.376099072	0.47147071
8.06	0.35646101	0.464145109
8.08	0.327301463	0.457307484
8.1	0.26898237	0.451344646
8.12	0.220184761	0.446452975
8.14	0.171982245	0.442531304
8.16	0.123184637	0.439579636
8.18	0.055344059	0.437794349
8.2	-0.022613096	0.437467039
8.22	-0.120208314	0.438895253
8.24	-0.197570376	0.44207304
8.26	-0.266006047	0.446708804
8.28	-0.32432514	0.452612116
8.3	-0.382644233	0.45968181
8.32	-0.440963326	0.467917886
8.34	-0.49928242	0.477320343
8.36	-0.537963451	0.487692802
8.38	-0.567122997	0.498743666
8.4	-0.586761059	0.510282507
8.42	-0.635558668	0.522505704
8.44	-0.654601637	0.535407307
8.46	-0.654601637	0.54849934
8.48	-0.645080153	0.561496158
8.5	-0.645080153	0.574397761
8.52	-0.645080153	0.587299364
8.54	-0.635558668	0.600105752
8.56	-0.615920606	0.612620545
8.58	-0.606399121	0.624843742
8.6	-0.606399121	0.636971724
8.62	-0.586761059	0.648903326
8.64	-0.596282544	0.660733762
8.66	-0.606399121	0.672760579
8.68	-0.596282544	0.684787396
8.7	-0.606399121	0.696814212
8.72	-0.596282544	0.708841029
8.74	-0.586761059	0.720671465
8.76	-0.586761059	0.732406686
8.78	-0.577239575	0.744046692
8.8	-0.586761059	0.755686699
8.82	-0.577239575	0.767326705
8.84	-0.567122997	0.778770331
8.86	-0.567122997	0.790112791
8.88	-0.567122997	0.801455251
8.9	-0.567122997	0.812797711
8.92	-0.577239575	0.824241336
8.94	-0.596282544	0.835976558
8.96	-0.596282544	0.847902209
8.98	-0.586761059	0.859732645
9	-0.567122997	0.871271485
9.02	-0.537963451	0.88232235
9.04	-0.508803904	0.892790023
9.06	-0.460006296	0.902478125
9.08	-0.392165718	0.910999845
9.1	-0.295165593	0.917873158
9.12	-0.178527407	0.922610088
9.14	-0.051772643	0.924913089
9.16	0.045227481	0.924978541
9.18	0.064865543	0.92387761
9.2	0.045227481	0.92277668
9.22	0.045227481	0.92187213
9.24	0.055344059	0.920866415
9.26	0.123184637	0.919081128
9.28	0.18150373	0.916034244
9.3	0.259460885	0.911624598
9.32	0.327301463	0.905756975
9.34	0.395737134	0.898526589
9.36	0.443939649	0.890129821
9.38	0.492737258	0.880763052
9.4	0.531418289	0.870521496
9.42	0.551056351	0.85969675
9.44	0.59985396	0.848187647
9.46	0.638534991	0.835803757
9.48	0.667694538	0.822741462
9.5	0.706375569	0.809000761
9.52	0.706375569	0.79487325
9.54	0.696854084	0.780840953
9.56	0.667694538	0.767195467
9.58	0.648056476	0.754037957
9.6	0.629013506	0.741267257
9.62	0.59985396	0.728978582
9.64	0.560577836	0.717374264
9.66	0.531418289	0.706454303
9.68	0.502258743	0.696117533
9.7	0.521896805	0.685875977
9.72	0.521896805	0.675438041
9.74	0.541534867	0.664803724
9.76	0.560577836	0.653782597
9.78	0.580215898	0.64237466
9.8	0.589737382	0.630675127
9.82	0.609375444	0.618683999
9.84	0.629013506	0.60630011
9.86	0.638534991	0.593624625
9.88	0.648056476	0.58075871
9.9	0.648056476	0.56779758
9.92	0.658173053	0.554735285
9.94	0.658173053	0.541571824
9.96	0.638534991	0.528604744
9.98	0.629013506	0.515929259
10	0.609375444	0.503545369
10.02	0.589737382	0.491554241
10.04	0.570694413	0.479949923
10.06	0.541534867	0.46882763
10.08	0.521896805	0.458193313
10.1	0.492737258	0.448046973
10.12	0.454056227	0.438579038
10.14	0.414780103	0.429890675
10.16	0.366577587	0.422077098
10.18	0.317779978	0.415233522
10.2	0.259460885	0.409461113
10.22	0.201141792	0.404855087
10.24	0.132706121	0.401516608
10.26	0.064865543	0.399540891
10.28	-0.002975034	0.398921986
10.3	-0.061294128	0.399564677
10.32	-0.091048767	0.401088106
10.34	-0.120208314	0.403200677
10.36	-0.207686953	0.40647963
10.38	-0.32432514	0.411799751
10.4	-0.460006296	0.419643065
10.42	-0.606399121	0.430307119
10.44	-0.790877886	0.444279889
10.46	-0.956313681	0.461751805
10.48	-1.102111414	0.482336056
10.5	-1.277068694	0.506127857
10.52	-1.413344942	0.533031993
10.54	-1.500823582	0.562173679
10.56	-1.520461644	0.592386531
10.58	-1.607940284	0.62367055
10.6	-1.685302346	0.656602976
10.62	-1.666259377	0.690118594
10.64	-1.695418923	0.723735377
10.66	-1.675780861	0.757447375
10.68	-1.646621315	0.790671396
10.7	-1.578780737	0.822925417
10.72	-1.500823582	0.85372146
10.74	-1.442504489	0.883154741
10.76	-1.39370688	0.911516854
10.78	-1.384185395	0.939295777
10.8	-1.374068818	0.966878319
10.82	-1.39370688	0.994556076
10.84	-1.344909271	1.021942238
10.86	-1.30622824	1.048453613
10.88	-1.247909147	1.073994987
10.9	-1.228271085	1.098756789
10.92	-1.102111414	1.122060614
10.94	-1.111632898	1.144198057
10.96	-1.063430383	1.16594869
10.98	-1.043792321	1.187020917
11	-1.014632774	1.207605168
11.02	-1.024154259	1.227993038
11.04	-0.975951743	1.247994098
11.06	-0.88787801	1.266632396
11.08	-0.858718464	1.284098361
11.1	-0.839675494	1.3010823
11.12	-0.820037432	1.317679429
11.14	-0.820037432	1.334080178
11.16	-0.829558917	1.350576142
11.18	-0.820037432	1.367072105
11.2	-0.790877886	1.383181258
11.22	-0.742080277	1.39851084
11.24	-0.71292073	1.41306085
11.26	-0.703399246	1.42722405
11.28	-0.693877761	1.44119682
11.3	-0.664718215	1.45478278
11.32	-0.645080153	1.467880763
11.34	-0.645080153	1.480782366
11.36	-0.674239699	1.493975565
11.38	-0.664718215	1.507365144
11.4	-0.615920606	1.520171532
11.42	-0.577239575	1.532103134
11.44	-0.557601513	1.543451545
11.46	-0.557601513	1.554603575
11.48	-0.567122997	1.56585082
11.5	-0.586761059	1.577389661
11.52	-0.606399121	1.589321263
11.54	-0.606399121	1.601449245
11.56	-0.615920606	1.613672442
11.58	-0.635558668	1.626187235
11.6	-0.615920606	1.638702028
11.62	-0.557601513	1.650437249
11.64	-0.489165842	1.660904922
11.66	-0.489165842	1.670688239
11.68	-0.489165842	1.680471556
11.7	-0.508803904	1.690451254
11.72	-0.528441966	1.700823712
11.74	-0.537963451	1.711487767
11.76	-0.537963451	1.722247036
11.78	-0.508803904	1.732714709
11.8	-0.489165842	1.742694407
11.82	-0.49928242	1.752578889
11.84	-0.508803904	1.762659752
11.86	-0.537963451	1.773127426
11.88	-0.577239575	1.784279456
11.9	-0.586761059	1.795919463
11.92	-0.577239575	1.807559469
11.94	-0.557601513	1.81890788
11.96	-0.567122997	1.830155125
11.98	-0.567122997	1.841497585
12	-0.577239575	1.852941211
12.02	-0.577239575	1.864486002
12.04	-0.577239575	1.876030794
12.06	-0.577239575	1.887575585
12.08	-0.596282544	1.899310806
12.1	-0.615920606	1.911432838
12.12	-0.615920606	1.92375125
12.14	-0.586761059	1.935778067
12.16	-0.548080028	1.947126477
12.18	-0.537963451	1.957986912
12.2	-0.537963451	1.968746181
12.22	-0.537963451	1.97950545
12.24	-0.537963451	1.990264719
12.26	-0.528441966	2.000928773
12.28	-0.508803904	2.011301232
12.3	-0.489165842	2.02128093
12.32	-0.460006296	2.030772651
12.34	-0.430846749	2.039681181
12.36	-0.382644233	2.047816091
12.38	-0.333846625	2.054981
12.4	-0.314208563	2.061461552
12.42	-0.343368109	2.068037318
12.44	-0.353484687	2.075005846
12.46	-0.353484687	2.08207554
12.48	-0.314208563	2.088752473
12.5	-0.314208563	2.095036644
12.52	-0.333846625	2.101517196
12.54	-0.363006171	2.108485724
12.56	-0.343368109	2.115549466
12.58	-0.343368109	2.122416829
12.6	-0.343368109	2.129284191
12.62	-0.372527656	2.136443148
12.64	-0.392165718	2.144090082
12.66	-0.440963326	2.152421373
12.68	-0.470122873	2.161532235
12.7	-0.489165842	2.171125122
12.72	-0.479644358	2.180813224
12.74	-0.489165842	2.190501326
12.76	-0.479644358	2.200189428
12.78	-0.450484811	2.209490719
12.8	-0.392165718	2.217917225
12.82	-0.382644233	2.225665324
12.84	-0.343368109	2.232925448
12.86	-0.295165593	2.239310785
12.88	-0.266006047	2.244922501
12.9	-0.285049016	2.250433052
12.92	-0.295165593	2.256235198
12.94	-0.285049016	2.262037344
12.96	-0.275527531	2.267643109
12.98	-0.295165593	2.273350041
13	-0.275527531	2.279056972
13.02	-0.2368465	2.284180712
13.04	-0.188048891	2.288429666
13.06	-0.158889345	2.291899048
13.08	-0.14936786	2.294981621
13.1	-0.188048891	2.298355788
13.12	-0.246367985	2.302699957
13.14	-0.255889469	2.307722531
13.16	-0.255889469	2.312840321
13.18	-0.217208438	2.3175713
13.2	-0.178527407	2.321528658
13.22	-0.158889345	2.324902826
13.24	-0.168410829	2.328175827
13.26	-0.197570376	2.33183564
13.28	-0.217208438	2.335983428
13.3	-0.188048891	2.340036001
13.32	-0.217208438	2.344088574
13.34	-0.255889469	2.348819553
13.36	-0.275527531	2.354133723
13.38	-0.32432514	2.36013225
13.4	-0.343368109	2.366809183
13.42	-0.295165593	2.37319452
13.44	-0.226729923	2.378413475
13.46	-0.139251283	2.382073287
13.48	-0.032134581	2.383787145
13.5	0.016067935	2.383947812
13.52	0.00654645	2.383721668
13.54	-0.013091612	2.38378712
13.56	-0.032134581	2.384239382
13.58	0.00654645	2.384495263
13.6	0.035705997	2.384072738
13.62	0.084503605	2.382870642
13.64	0.123184637	2.38079376
13.66	0.132706121	2.378234852
13.68	0.201141792	2.374896373
13.7	0.230301338	2.370581942
13.72	0.220184761	2.366077081
13.74	0.210663276	2.361768601
13.76	0.18150373	2.357846931
13.78	0.171982245	2.354312071
13.8	0.201141792	2.35058083
13.82	0.230301338	2.346266399
13.84	0.26898237	2.341273562
13.86	0.317779978	2.335405939
13.88	0.395737134	2.328270767
13.9	0.443939649	2.319874
13.92	0.463577711	2.310798826
13.94	0.443939649	2.301723652
13.96	0.443939649	2.292844859
13.98	0.463577711	2.283769686
14	0.463577711	2.274498132
14.02	0.454056227	2.265321792
14.04	0.376099072	2.257020239
14.06	0.366577587	2.249593473
14.08	0.414780103	2.241779896
14.1	0.502258743	2.232609507
14.12	0.541534867	2.222171571
14.14	0.560577836	2.211150444
14.16	0.609375444	2.199450911
14.18	0.638534991	2.186971807
14.2	0.658173053	2.174004727
14.22	0.677216022	2.160650836
14.24	0.6873326	2.14700535
14.26	0.677216022	2.133359863
14.28	0.706375569	2.119523947
14.3	0.774811239	2.104712079
14.32	0.862289879	2.088341068
14.34	0.911087488	2.070607295
14.36	0.940247035	2.052093949
14.38	0.949768519	2.033193794
14.4	0.940247035	2.014293638
14.42	0.930130457	1.995589863
14.44	0.949768519	1.976790874
14.46	0.900970911	1.958283479
14.48	0.852768395	1.940746086
14.5	0.784332724	1.924375075
14.52	0.803970786	1.90849204
14.54	0.803970786	1.892412624
14.56	0.794449301	1.876428423
14.58	0.784332724	1.860640603
14.6	0.794449301	1.844852783
14.62	0.794449301	1.828963797
14.64	0.813492271	1.812884381
14.66	0.803970786	1.79670975
14.68	0.833130333	1.780338739
14.7	0.852768395	1.763479752
14.72	0.842651817	1.74652555
14.74	0.813492271	1.729964109
14.76	0.794449301	1.713884693
14.78	0.755173177	1.698388468
14.8	0.696854084	1.683868196
14.82	0.677216022	1.670127495
14.84	0.648056476	1.65687477
14.86	0.638534991	1.644008855
14.88	0.609375444	1.631529751
14.9	0.609375444	1.619342242
14.92	0.629013506	1.606958352
14.94	0.648056476	1.594187653
14.96	0.667694538	1.581030142
14.98	0.667694538	1.567676252
15	0.667694538	1.554322361
15.02	0.677216022	1.540873255
15.04	0.677216022	1.527328935
15.06	0.677216022	1.513784614
15.08	0.696854084	1.500043913
15.1	0.745651693	1.485618856
15.12	0.774811239	1.470414226
15.14	0.813492271	1.454531191
15.16	0.862289879	1.43777337
15.18	0.862289879	1.420527572
15.2	0.852768395	1.403376989
15.22	0.842651817	1.386422787
15.24	0.813492271	1.369861346
15.26	0.784332724	1.353883096
15.28	0.755173177	1.338488037
15.3	0.706375569	1.32387255
15.32	0.667694538	1.310131849
15.34	0.667694538	1.296777958
15.36	0.6873326	1.283227687
15.38	0.735535115	1.26899901
15.4	0.755173177	1.254091927
15.42	0.735535115	1.239184844
15.44	0.735535115	1.224474141
15.46	0.745651693	1.209662273
15.48	0.745651693	1.194749239
15.5	0.745651693	1.179836206
15.52	0.706375569	1.165315933
15.54	0.6873326	1.151378851
15.56	0.677216022	1.137733365
15.58	0.677216022	1.124189045
15.6	0.677216022	1.110644724
15.62	0.696854084	1.096904023
15.64	0.696854084	1.082966941
15.66	0.726013631	1.068738264
15.68	0.755173177	1.053926396
15.7	0.764694662	1.038727718
15.72	0.706375569	1.024017016
15.74	0.629013506	1.010663125
15.76	0.570694413	0.998666046
15.78	0.551056351	0.987448538
15.8	0.531418289	0.976623792
15.82	0.551056351	0.965799045
15.84	0.560577836	0.954682703
15.86	0.570694413	0.943369981
15.88	0.551056351	0.932152473
15.9	0.521896805	0.921422942
15.92	0.492737258	0.911276601
15.94	0.483215773	0.901517071
15.96	0.483215773	0.891852755
15.98	0.521896805	0.881801629
16	0.551056351	0.871072098
16.02	0.551056351	0.860050971
16.04	0.521896805	0.849321439
16.06	0.521896805	0.838883503
16.08	0.51237532	0.828540782
16.1	0.51237532	0.818293275
16.12	0.521896805	0.807950554
16.14	0.502258743	0.797708999
16.16	0.463577711	0.788050634
16.18	0.42489668	0.77916589
16.2	0.366577587	0.771251148
16.22	0.317779978	0.764407572
16.24	0.278503854	0.758444734
16.26	0.26898237	0.752969871
16.28	0.239822823	0.74788182
16.3	0.210663276	0.743376959
16.32	0.201141792	0.739258908
16.34	0.201141792	0.735236072
16.36	0.191025214	0.731314402
16.38	0.152344183	0.727880708
16.4	0.074387028	0.725613396
16.42	-0.022613096	0.725095657
16.44	-0.110091736	0.726422705
16.46	-0.158889345	0.729112516
16.48	-0.188048891	0.732581898
16.5	-0.207686953	0.736539256
16.52	-0.207686953	0.740692996
16.54	-0.197570376	0.744745569
16.56	-0.178527407	0.748506547
16.58	-0.14936786	0.751785499
16.6	-0.120208314	0.754481261
16.62	-0.120208314	0.756885427
16.64	-0.197570376	0.760063214
16.66	-0.382644233	0.76586536
16.68	-0.645080153	0.776142604
16.7	-0.917037557	0.791763781
16.72	-1.092589929	0.811860056
16.74	-1.199111538	0.834777071
16.76	-1.257430631	0.859342493
16.78	-1.209228116	0.88400908
16.8	-1.150909022	0.907610451
16.82	-1.102111414	0.930140656
16.84	-1.102111414	0.952182884
16.86	-1.111632898	0.974320327
16.88	-1.053313805	0.995969794
16.9	-1.034270836	1.016845641
16.92	-1.005111289	1.037239462
16.94	-0.965835165	1.056948926
16.96	-0.965835165	1.07626563
16.98	-0.917037557	1.095094357
17	-0.897994588	1.113244678
17.02	-0.849196979	1.130716594
17.04	-0.781356401	1.147022128
17.06	-0.752196854	1.16235766
17.08	-0.742080277	1.177300432
17.1	-0.742080277	1.192142037
17.12	-0.742080277	1.206983643
17.14	-0.761718339	1.222021629
17.16	-0.732558792	1.2369644
17.18	-0.752196854	1.251811957
17.2	-0.761718339	1.266951109
17.22	-0.742080277	1.281989095
17.24	-0.683761184	1.296247509
17.26	-0.596282544	1.309047947
17.28	-0.508803904	1.320098811
17.3	-0.343368109	1.328620531
17.32	-0.197570376	1.334029916
17.34	-0.051772643	1.336523346
17.36	0.055344059	1.336487632
17.38	0.103546575	1.334898726
17.4	0.132706121	1.332536199
17.42	0.171982245	1.329489315
17.44	0.239822823	1.325371265
17.46	0.327301463	1.319700022
17.48	0.376099072	1.312666016
17.5	0.42489668	1.304656059
17.52	0.443939649	1.295967696
17.54	0.473099196	1.286797307
17.56	0.473099196	1.277335323
17.58	0.483215773	1.267772173
17.6	0.492737258	1.258012643
17.62	0.502258743	1.248062683
17.64	0.521896805	1.237821128
17.66	0.551056351	1.227091596
17.68	0.560577836	1.215975254
17.7	0.589737382	1.204472102
17.72	0.629013506	1.192284593
17.74	0.648056476	1.179513893
17.76	0.677216022	1.166261168
17.78	0.706375569	1.152425252
17.8	0.726013631	1.13810136
17.82	0.755173177	1.123289492
17.84	0.774811239	1.107989648
17.86	0.784332724	1.092398209
17.88	0.794449301	1.076610388
17.9	0.794449301	1.060721402
17.92	0.794449301	1.044832416
17.94	0.774811239	1.029139811
17.96	0.755173177	1.013839967
17.98	0.764694662	0.998641288
18	0.706375569	0.983930586
18.02	0.677216022	0.97009467
18.04	0.667694538	0.956645564
18.06	0.658173053	0.943386889
18.08	0.638534991	0.930419808
18.1	0.638534991	0.917649108
18.12	0.629013506	0.904973623
18.14	0.609375444	0.892589734
18.16	0.589737382	0.880598606
18.18	0.570694413	0.868994288
18.2	0.531418289	0.857973161
18.22	0.51237532	0.847535224
18.24	0.483215773	0.837579314
18.26	0.434418165	0.828402974
18.28	0.395737134	0.820101421
18.3	0.35646101	0.81257944
18.32	0.346939525	0.805545434
18.34	0.307663401	0.798999405
18.36	0.259460885	0.793328162
18.38	0.210663276	0.788626921
18.4	0.171982245	0.784800465
18.42	0.123184637	0.781848797
18.44	0.064865543	0.779968295
18.46	0.016067935	0.77915896
18.48	-0.061294128	0.779611222
18.5	-0.226729923	0.782491462
18.52	-0.528441966	0.790043181
18.54	-0.761718339	0.802944784
18.56	-0.927154134	0.819833509
18.58	-0.994994712	0.839054998
18.6	-1.072951867	0.859734463
18.62	-1.063430383	0.881098286
18.64	-1.053313805	0.902265728
18.66	-1.005111289	0.922849979
18.68	-0.965835165	0.942559443
18.7	-0.946197103	0.961679766
18.72	-0.946197103	0.980603708
18.74	-0.985473227	0.999920411
18.76	-1.034270836	1.020117852
18.78	-1.043792321	1.040898484
18.8	-1.034270836	1.061679115
18.82	-1.005111289	1.082072936
18.84	-0.956313681	1.101687186
18.86	-0.936675619	1.120617079
18.88	-0.878356526	1.138767401
18.9	-0.839675494	1.155947721
18.92	-0.781356401	1.17215804
18.94	-0.732558792	1.187297192
18.96	-0.693877761	1.201561557
18.98	-0.654601637	1.215046351
19	-0.635558668	1.227947954
19.02	-0.586761059	1.240171151
19.04	-0.537963451	1.251418397
19.06	-0.518325389	1.261981285
19.08	-0.508803904	1.272252578
19.1	-0.548080028	1.282821417
19.12	-0.615920606	1.294461424
19.14	-0.654601637	1.307166646
19.16	-0.654601637	1.320258679
19.18	-0.635558668	1.333160282
19.2	-0.586761059	1.345383479
19.22	-0.528441966	1.356535509
19.24	-0.450484811	1.366324777
19.26	-0.343368109	1.374263306
19.28	-0.304687078	1.380743858
19.3	-0.295165593	1.386742385
19.32	-0.353484687	1.393228888
19.34	-0.450484811	1.401268583
19.36	-0.528441966	1.41105785
19.38	-0.537963451	1.421721905
19.4	-0.489165842	1.431993198
19.42	-0.372527656	1.440610133
19.44	-0.217208438	1.446507493
19.46	-0.110091736	1.449780495
19.48	-0.100570252	1.451887115
19.5	-0.139251283	1.45428533
19.52	-0.255889469	1.458236738
19.54	-0.372527656	1.464520909
19.56	-0.401687202	1.472263058
19.58	-0.382644233	1.480106372
19.6	-0.32432514	1.487176066
19.62	-0.255889469	1.492978212
19.64	-0.197570376	1.49751281
19.66	-0.120208314	1.500690597
19.68	-0.022613096	1.502118811
19.7	0.09402509	1.501404691
19.72	0.210663276	1.498357808
19.74	0.307663401	1.493174541
19.76	0.395737134	1.486140536
19.78	0.531418289	1.476868981
19.8	0.677216022	1.464782638
19.82	0.900970911	1.449000769
19.84	1.134247283	1.428648587
19.86	1.328842625	1.404017688
19.88	1.465118874	1.376078073
19.9	1.572235575	1.345704529
19.92	1.659714215	1.313385031
19.94	1.650192731	1.280285961
19.96	1.650192731	1.247282107
19.98	1.650192731	1.214278252
20	1.630554669	1.181470778
